Data from lab05_FLMS143021_18-34-53-260.txt Node
Date: Wed Feb 15 18:34:53 CST 2023
User: Optics Lab
Spectrometer: FLMS14302
Trigger mode: 0
Integration Time (sec): 1.000000E-1
Scans to average: 1
Electric dark correction enabled: true
Nonlinearity correction enabled: false
Boxcar width: 0
XAxis mode: Wavelengths
Number of Pixels in Spectrum: 2048
>>>>>Begin Spectral Data<<<<<
338.578	-68.94
338.961	-68.94
339.343	-68.94
339.725	-58.56
340.108	-97.48
340.49	-113.06
340.872	-37.79
341.254	-71.53
341.636	-24.82
342.018	-63.75
342.4	-81.91
342.782	-71.53
343.164	-4.06
343.546	3.73
343.928	29.68
344.309	68.61
344.691	58.23
345.073	45.25
345.455	73.8
345.836	97.16
346.218	91.97
346.599	112.73
346.981	115.33
347.362	193.18
347.744	172.42
348.125	133.49
348.506	175.02
348.888	286.61
349.269	299.59
349.65	232.11
350.031	294.4
350.413	284.02
350.794	299.59
351.175	325.54
351.556	296.99
351.937	328.14
352.318	322.95
352.698	320.35
353.079	322.95
353.46	263.25
353.841	346.3
354.222	374.85
354.602	398.21
354.983	322.95
355.363	390.42
355.744	359.28
356.124	359.28
356.505	385.23
356.885	463.09
357.266	393.02
357.646	278.83
358.026	346.3
358.407	354.09
358.787	294.4
359.167	325.54
359.547	372.25
359.927	302.18
360.307	390.42
360.687	400.8
361.067	338.52
361.447	315.16
361.827	369.66
362.207	398.21
362.587	382.64
362.966	278.83
363.346	369.66
363.726	304.78
364.105	322.95
364.485	294.4
364.865	304.78
365.244	320.35
365.624	359.28
366.003	291.8
366.382	354.09
366.762	343.71
367.141	356.68
367.52	299.59
367.899	333.33
368.279	307.37
368.658	364.47
369.037	245.09
369.416	315.16
369.795	354.09
370.174	393.02
370.553	333.33
370.932	367.06
371.311	338.52
371.689	322.95
372.068	325.54
372.447	354.09
372.825	291.8
373.204	309.97
373.583	312.56
373.961	343.71
374.34	276.23
374.718	281.42
375.097	325.54
375.475	400.8
375.853	239.9
376.232	330.73
376.61	333.33
376.988	271.04
377.366	315.16
377.744	302.18
378.122	330.73
378.5	328.14
378.878	359.28
379.256	328.14
379.634	390.42
380.012	309.97
380.39	268.45
380.768	273.64
381.145	278.83
381.523	335.92
381.901	393.02
382.278	309.97
382.656	328.14
383.033	299.59
383.411	317.75
383.788	299.59
384.166	382.64
384.543	325.54
384.921	304.78
385.298	278.83
385.675	377.45
386.052	320.35
386.429	322.95
386.806	385.23
387.184	367.06
387.561	390.42
387.938	424.16
388.314	380.04
388.691	307.37
389.068	302.18
389.445	320.35
389.822	325.54
390.198	325.54
390.575	382.64
390.952	333.33
391.328	351.49
391.705	380.04
392.081	265.85
392.458	289.21
392.834	354.09
393.211	284.02
393.587	351.49
393.963	361.87
394.34	335.92
394.716	405.99
395.092	328.14
395.468	335.92
395.844	408.59
396.22	281.42
396.596	354.09
396.972	341.11
397.348	385.23
397.724	400.8
398.1	302.18
398.476	369.66
398.851	341.11
399.227	338.52
399.603	284.02
399.978	328.14
400.354	398.21
400.729	382.64
401.105	325.54
401.48	416.37
401.856	372.25
402.231	354.09
402.606	351.49
402.982	343.71
403.357	431.95
403.732	455.3
404.107	494.23
404.482	782.3
404.857	1449.28
405.232	1592.02
405.607	1566.07
405.982	782.3
406.357	447.52
406.732	367.06
407.107	421.56
407.482	356.68
407.856	478.66
408.231	452.71
408.606	478.66
408.98	408.59
409.355	437.14
409.729	400.8
410.104	372.25
410.478	431.95
410.852	426.75
411.227	354.09
411.601	418.97
411.975	413.78
412.35	356.68
412.724	447.52
413.098	473.47
413.472	395.61
413.846	450.11
414.22	437.14
414.594	400.8
414.968	367.06
415.342	426.75
415.715	369.66
416.089	473.47
416.463	465.68
416.837	442.33
417.21	463.09
417.584	387.83
417.957	450.11
418.331	460.49
418.704	439.73
419.078	450.11
419.451	364.47
419.824	437.14
420.198	447.52
420.571	442.33
420.944	431.95
421.317	463.09
421.69	483.85
422.064	473.47
422.437	481.25
422.81	460.49
423.182	413.78
423.555	465.68
423.928	444.92
424.301	457.9
424.674	499.42
425.047	527.97
425.419	486.45
425.792	439.73
426.164	530.56
426.537	530.56
426.91	517.59
427.282	538.35
427.654	494.23
428.027	556.52
428.399	494.23
428.771	564.3
429.144	616.21
429.516	564.3
429.888	621.4
430.26	569.49
430.632	696.66
431.004	644.75
431.376	701.85
431.748	720.02
432.12	709.64
432.492	717.42
432.864	707.04
433.236	683.68
433.607	738.18
433.979	847.18
434.351	883.52
434.722	1080.76
435.094	1581.64
435.465	3582.57
435.837	11796.5
436.208	17788.91
436.58	18525.96
436.951	10890.76
437.322	4246.95
437.693	1713.99
438.065	1114.49
438.436	1010.68
438.807	971.76
439.178	1018.47
439.549	940.61
439.92	930.23
440.291	909.47
440.662	854.97
441.033	899.09
441.403	948.4
441.774	963.97
442.145	906.87
442.516	1008.09
442.886	912.06
443.257	1049.61
443.627	974.35
443.998	930.23
444.368	987.33
444.739	927.64
445.109	1085.95
445.479	875.73
445.85	1041.83
446.22	992.52
446.59	940.61
446.96	938.02
447.33	899.09
447.7	976.95
448.07	974.35
448.44	927.64
448.81	997.71
449.18	912.06
449.55	1028.85
449.92	938.02
450.29	935.42
450.659	1044.42
451.029	922.45
451.399	1023.66
451.768	966.56
452.138	961.37
452.507	901.68
452.877	927.64
453.246	953.59
453.615	1013.28
453.985	995.11
454.354	922.45
454.723	841.99
455.092	995.11
455.462	995.11
455.831	979.54
456.2	989.92
456.569	883.52
456.938	922.45
457.307	1150.83
457.675	961.37
458.044	930.23
458.413	925.04
458.782	906.87
459.15	875.73
459.519	906.87
459.888	917.26
460.256	961.37
460.625	847.18
460.993	847.18
461.362	961.37
461.73	899.09
462.098	875.73
462.467	912.06
462.835	917.26
463.203	725.21
463.571	839.4
463.939	909.47
464.307	875.73
464.675	862.76
465.043	865.35
465.411	938.02
465.779	813.45
466.147	847.18
466.515	821.23
466.883	852.37
467.25	841.99
467.618	899.09
467.986	870.54
468.353	883.52
468.721	821.23
469.088	810.85
469.456	725.21
469.823	735.59
470.19	769.33
470.558	816.04
470.925	852.37
471.292	803.06
471.659	818.64
472.027	738.18
472.394	792.68
472.761	790.09
473.128	758.95
473.495	829.02
473.862	774.52
474.228	852.37
474.595	816.04
474.962	774.52
475.329	813.45
475.695	803.06
476.062	831.61
476.429	704.45
476.795	688.87
477.162	717.42
477.528	800.47
477.895	790.09
478.261	787.49
478.627	816.04
478.994	758.95
479.36	826.42
479.726	878.33
480.092	870.54
480.458	932.83
480.824	945.8
481.19	1026.26
481.556	1052.21
481.922	1145.64
482.288	1181.97
482.654	1449.28
483.02	1763.3
483.385	1978.71
483.751	2399.14
484.117	2713.16
484.482	3149.16
484.848	3424.26
485.213	3995.21
485.579	4797.14
485.944	5279.85
486.31	5752.19
486.675	6263.45
487.04	6486.64
487.406	6681.28
487.771	6964.16
488.136	6811.05
488.501	6546.33
488.866	6460.69
489.231	6642.35
489.596	6554.12
489.961	6525.57
490.326	6445.12
490.691	6094.76
491.056	5837.83
491.42	5778.14
491.785	5360.31
492.15	5349.93
492.514	5181.23
492.879	5098.19
493.243	4986.59
493.608	4937.28
493.972	4636.23
494.337	4475.33
494.701	4376.71
495.065	4013.38
495.43	3855.07
495.794	3803.16
496.158	3707.14
496.522	3569.59
496.886	3699.35
497.25	3613.71
497.614	3644.85
497.978	3613.71
498.342	3455.4
498.706	3328.23
499.07	2887.04
499.433	2705.38
499.797	2383.57
500.161	2303.11
500.524	2069.54
500.888	1843.76
501.251	1701.02
501.615	1529.73
501.978	1415.54
502.342	1345.47
502.705	1140.45
503.068	1130.06
503.432	1065.18
503.795	1028.85
504.158	979.54
504.521	927.64
504.884	912.06
505.247	860.16
505.61	790.09
505.973	784.9
506.336	831.61
506.699	730.4
507.062	735.59
507.424	732.99
507.787	642.16
508.15	675.9
508.512	707.04
508.875	714.83
509.238	683.68
509.6	694.06
509.962	769.33
510.325	784.9
510.687	813.45
511.049	730.4
511.412	704.45
511.774	758.95
512.136	761.54
512.498	727.8
512.86	727.8
513.222	844.59
513.584	836.8
513.946	743.37
514.308	748.56
514.67	847.18
515.032	784.9
515.393	782.3
515.755	730.4
516.117	769.33
516.478	709.64
516.84	714.83
517.201	748.56
517.563	758.95
517.924	810.85
518.286	712.23
518.647	688.87
519.008	660.33
519.37	732.99
519.731	774.52
520.092	652.54
520.453	717.42
520.814	611.02
521.175	600.64
521.536	626.59
521.897	688.87
522.258	629.18
522.619	621.4
522.979	600.64
523.34	618.8
523.701	623.99
524.061	688.87
524.422	621.4
524.783	626.59
525.143	590.25
525.504	670.71
525.864	665.52
526.224	657.73
526.585	691.47
526.945	636.97
527.305	704.45
527.665	696.66
528.025	660.33
528.385	657.73
528.746	649.95
529.106	662.92
529.465	732.99
529.825	678.49
530.185	629.18
530.545	668.11
530.905	709.64
531.264	662.92
531.624	758.95
531.984	720.02
532.343	847.18
532.703	919.85
533.062	1249.45
533.422	1646.52
533.781	1906.04
534.141	1924.21
534.5	1825.59
534.859	1480.42
535.218	1457.07
535.577	1467.45
535.937	1433.71
536.296	1519.35
536.655	1612.78
537.014	1926.8
537.373	2295.33
537.731	2658.66
538.09	3369.76
538.449	4257.33
538.808	5407.02
539.166	6162.24
539.525	6764.33
539.884	7597.4
540.242	9183.09
540.601	10810.31
540.959	12320.74
541.318	15590.74
541.676	21310.65
542.034	29542.75
542.393	38561.21
542.751	45570.95
543.109	49733.72
543.467	52001.96
543.825	52749.39
544.183	53491.63
544.541	51965.63
544.899	49396.34
545.257	47167.03
545.615	45205.03
545.973	51571.15
546.331	51965.63
546.688	50629.08
547.046	38771.43
547.404	28208.8
547.761	21040.75
548.119	16649.6
548.476	14243.81
548.834	13597.6
549.191	14300.91
549.548	14620.12
549.906	14386.55
550.263	13740.34
550.62	12486.83
550.977	11573.31
551.334	11004.95
551.691	10581.93
552.048	10337.98
552.405	10561.17
552.762	10358.74
553.119	10034.33
553.476	9162.33
553.833	8090.5
554.189	6857.76
554.546	5931.26
554.903	4680.35
555.259	3782.4
555.616	3011.61
555.972	2573.02
556.329	2300.52
556.685	2116.26
557.042	1916.42
557.398	1719.18
557.754	1607.59
558.11	1441.49
558.467	1425.92
558.823	1358.45
559.179	1342.87
559.535	1280.59
559.891	1192.35
560.247	1168.99
560.603	1104.11
560.958	1034.04
561.314	1174.18
561.67	1114.49
562.026	1181.97
562.381	1101.52
562.737	989.92
563.092	1059.99
563.448	1075.56
563.803	963.97
564.159	987.33
564.514	935.42
564.869	971.76
565.225	912.06
565.58	849.78
565.935	826.42
566.29	810.85
566.645	829.02
567	813.45
567.355	766.73
567.71	808.26
568.065	790.09
568.42	891.3
568.775	805.66
569.13	771.92
569.484	901.68
569.839	816.04
570.193	849.78
570.548	777.11
570.903	790.09
571.257	771.92
571.611	792.68
571.966	766.73
572.32	865.35
572.674	909.47
573.029	925.04
573.383	935.42
573.737	1088.54
574.091	1132.66
574.445	1098.92
574.799	1091.14
575.153	1163.8
575.507	1327.3
575.861	1397.37
576.215	1451.87
576.568	2061.76
576.922	3151.76
577.276	4057.5
577.629	4285.88
577.983	3637.07
578.336	2874.07
578.69	2889.64
579.043	3740.88
579.397	4540.21
579.75	5316.19
580.103	6112.93
580.456	7382
580.81	8264.38
581.163	8186.52
581.516	7397.57
581.869	6995.31
582.222	7298.95
582.575	7568.86
582.928	8209.88
583.281	9175.31
583.633	10052.5
583.986	10703.91
584.339	10947.86
584.691	10639.02
585.044	10057.69
585.397	9442.62
585.749	8721.14
586.102	8448.64
586.454	8163.17
586.806	8635.5
587.159	11495.45
587.511	14498.15
587.863	16862.41
588.215	16595.1
588.567	14261.98
588.92	12442.72
589.272	10208.21
589.624	8866.48
589.975	8256.59
590.327	7561.07
590.679	7202.93
591.031	6873.33
591.383	6525.57
591.734	6613.81
592.086	6473.66
592.438	7042.02
592.789	8108.67
593.141	9694.36
593.492	10963.43
593.844	10950.45
594.195	9634.67
594.546	7724.57
594.898	6408.78
595.249	5253.9
595.6	4363.73
595.951	3779.8
596.302	3608.52
596.653	3333.42
597.004	3343.8
597.355	3239.99
597.706	3239.99
598.057	3237.4
598.408	3582.57
598.758	3971.85
599.109	4838.66
599.46	5731.43
599.81	6782.5
600.161	6728
600.511	6600.83
600.862	5840.43
601.212	5186.42
601.562	4413.04
601.913	3707.14
602.263	3227.02
602.613	2889.64
602.963	2573.02
603.313	2414.71
603.663	2258.99
604.013	2297.92
604.363	2393.95
604.713	2458.83
605.063	2557.45
605.413	2687.21
605.763	2803.99
606.112	2894.83
606.462	2889.64
606.812	3291.9
607.161	3507.3
607.511	3779.8
607.86	4389.69
608.21	4807.52
608.559	5575.71
608.908	6315.35
609.258	7755.71
609.607	9647.64
609.956	12992.91
610.305	17955.01
610.654	29078.2
611.003	52347.13
611.352	63000.59
611.701	63000.59
612.05	63000.59
612.399	63000.59
612.748	63000.59
613.097	56426.84
613.445	46528.6
613.794	38506.71
614.143	32984.04
614.491	30041.04
614.84	27881.8
615.188	25429.3
615.537	22538.2
615.885	19870.29
616.233	16587.31
616.581	13706.6
616.93	11708.26
617.278	10283.48
617.626	8908
617.974	8194.31
618.322	7356.05
618.67	6953.78
619.018	7000.5
619.366	7117.28
619.714	6992.71
620.061	7540.31
620.409	7706.4
620.757	8248.81
621.104	8318.88
621.452	8152.78
621.799	7869.9
622.147	7579.24
622.494	7280.78
622.842	7091.33
623.189	6779.9
623.536	6499.62
623.884	6307.57
624.231	6255.66
624.578	6105.14
624.925	6162.24
625.272	6016.9
625.619	5962.4
625.966	5469.31
626.313	5388.85
626.66	5022.92
627.007	4867.21
627.353	4937.28
627.7	4815.31
628.047	4807.52
628.393	4690.73
628.74	4586.92
629.086	4804.92
629.433	5007.35
629.779	4968.42
630.125	5469.31
630.472	6476.26
630.818	8199.5
631.164	9878.62
631.51	11184.02
631.857	10623.45
632.203	8998.83
632.549	6943.4
632.895	5199.4
633.24	4044.52
633.586	3141.38
633.932	2432.88
634.278	2017.64
634.624	1825.59
634.969	1654.3
635.315	1503.78
635.66	1433.71
636.006	1355.85
636.351	1265.02
636.697	1340.28
637.042	1249.45
637.388	1210.52
637.733	1244.26
638.078	1166.4
638.423	1075.56
638.768	1106.71
639.113	1052.21
639.458	1072.97
639.803	1002.9
640.148	1093.73
640.493	1010.68
640.838	1002.9
641.183	1023.66
641.527	958.78
641.872	1018.47
642.217	1148.23
642.561	1078.16
642.906	1072.97
643.25	1080.76
643.595	1080.76
643.939	1098.92
644.284	1067.78
644.628	1143.04
644.972	1127.47
645.316	1236.47
645.66	1171.59
646.004	1223.49
646.348	1252.04
646.692	1150.83
647.036	1153.42
647.38	1036.64
647.724	1119.68
648.068	1161.21
648.412	1109.3
648.755	1091.14
649.099	1213.11
649.443	1322.11
649.786	1410.35
650.13	1799.64
650.473	2487.38
650.816	2941.54
651.16	3219.23
651.503	3045.35
651.846	2606.76
652.189	2157.78
652.533	1750.33
652.876	1630.95
653.219	1693.23
653.562	1490.8
653.905	1633.54
654.247	1472.64
654.59	1288.37
654.933	1231.28
655.276	1109.3
655.619	1028.85
655.961	922.45
656.304	831.61
656.646	777.11
656.989	813.45
657.331	987.33
657.674	906.87
658.016	1039.23
658.358	1072.97
658.701	1096.33
659.043	893.9
659.385	826.42
659.727	831.61
660.069	738.18
660.411	766.73
660.753	748.56
661.095	777.11
661.437	795.28
661.778	925.04
662.12	1104.11
662.462	1558.28
662.804	1919.02
663.145	1970.92
663.487	1937.18
663.828	1765.9
664.17	1547.9
664.511	1332.49
664.852	1171.59
665.194	1114.49
665.535	1023.66
665.876	857.56
666.217	883.52
666.558	953.59
666.899	976.95
667.24	948.4
667.581	963.97
667.922	1117.09
668.263	1057.4
668.604	1039.23
668.944	930.23
669.285	1026.26
669.626	1010.68
669.966	886.11
670.307	883.52
670.647	917.26
670.988	906.87
671.328	841.99
671.669	800.47
672.009	790.09
672.349	821.23
672.689	847.18
673.029	748.56
673.369	826.42
673.71	743.37
674.049	649.95
674.389	740.78
674.729	774.52
675.069	777.11
675.409	761.54
675.749	699.25
676.088	707.04
676.428	787.49
676.768	714.83
677.107	743.37
677.447	769.33
677.786	738.18
678.125	880.92
678.465	829.02
678.804	777.11
679.143	847.18
679.482	867.95
679.821	818.64
680.161	896.49
680.5	787.49
680.839	813.45
681.177	777.11
681.516	751.16
681.855	800.47
682.194	829.02
682.533	805.66
682.871	766.73
683.21	779.71
683.549	790.09
683.887	803.06
684.225	792.68
684.564	709.64
684.902	623.99
685.241	623.99
685.579	660.33
685.917	634.37
686.255	686.28
686.593	722.61
686.931	878.33
687.269	1088.54
687.607	1309.14
687.945	1501.18
688.283	1529.73
688.621	1425.92
688.959	1270.21
689.296	1106.71
689.634	995.11
689.972	779.71
690.309	758.95
690.647	707.04
690.984	616.21
691.322	626.59
691.659	639.56
691.996	577.28
692.333	546.14
692.671	587.66
693.008	675.9
693.345	745.97
693.682	1109.3
694.019	1233.87
694.356	1239.06
694.693	1143.04
695.03	958.78
695.366	818.64
695.703	626.59
696.04	649.95
696.376	530.56
696.713	509.8
697.05	564.3
697.386	400.8
697.722	533.16
698.059	489.04
698.395	483.85
698.731	514.99
699.068	460.49
699.404	457.9
699.74	489.04
700.076	527.97
700.412	460.49
700.748	442.33
701.084	473.47
701.42	447.52
701.756	481.25
702.091	551.33
702.427	491.64
702.763	439.73
703.098	535.75
703.434	582.47
703.769	592.85
704.105	753.76
704.44	738.18
704.776	875.73
705.111	764.14
705.446	888.71
705.781	1047.02
706.117	1132.66
706.452	1532.33
706.787	1913.83
707.122	2339.45
707.457	2682.02
707.792	2643.09
708.126	2547.07
708.461	2362.8
708.796	2445.85
709.131	2949.33
709.465	3190.69
709.8	3265.95
710.134	2697.59
710.469	2152.59
710.803	1781.47
711.138	1480.42
711.472	1337.68
711.806	1503.78
712.14	1895.66
712.475	2417.3
712.809	2609.35
713.143	2567.83
713.477	2308.3
713.811	1835.97
714.145	1488.21
714.479	1148.23
714.812	904.28
715.146	738.18
715.48	694.06
715.814	520.18
716.147	486.45
716.481	525.37
716.814	468.28
717.148	434.54
717.481	499.42
717.814	444.92
718.148	393.02
718.481	452.71
718.814	367.06
719.147	452.71
719.48	413.78
719.813	600.64
720.146	481.25
720.479	478.66
720.812	439.73
721.145	450.11
721.478	434.54
721.81	426.75
722.143	499.42
722.476	442.33
722.808	483.85
723.141	434.54
723.473	426.75
723.806	348.9
724.138	413.78
724.47	455.3
724.803	398.21
725.135	426.75
725.467	393.02
725.799	377.45
726.131	429.35
726.463	411.18
726.795	463.09
727.127	470.87
727.459	489.04
727.791	385.23
728.122	418.97
728.454	393.02
728.786	447.52
729.117	411.18
729.449	369.66
729.78	473.47
730.112	481.25
730.443	385.23
730.774	367.06
731.106	444.92
731.437	393.02
731.768	416.37
732.099	405.99
732.43	395.61
732.761	309.97
733.092	393.02
733.423	421.56
733.754	421.56
734.085	437.14
734.416	413.78
734.746	418.97
735.077	335.92
735.407	403.4
735.738	374.85
736.068	382.64
736.399	385.23
736.729	390.42
737.06	450.11
737.39	374.85
737.72	418.97
738.05	437.14
738.38	387.83
738.71	426.75
739.041	411.18
739.37	354.09
739.7	395.61
740.03	395.61
740.36	416.37
740.69	387.83
741.02	390.42
741.349	395.61
741.679	442.33
742.008	385.23
742.338	411.18
742.667	486.45
742.997	514.99
743.326	512.4
743.655	468.28
743.984	481.25
744.314	470.87
744.643	372.25
744.972	437.14
745.301	369.66
745.63	369.66
745.959	421.56
746.288	439.73
746.616	431.95
746.945	517.59
747.274	398.21
747.603	444.92
747.931	431.95
748.26	398.21
748.588	413.78
748.917	395.61
749.245	470.87
749.573	335.92
749.902	463.09
750.23	387.83
750.558	385.23
750.886	426.75
751.214	416.37
751.542	424.16
751.87	416.37
752.198	390.42
752.526	385.23
752.854	359.28
753.182	387.83
753.509	385.23
753.837	403.4
754.165	400.8
754.492	403.4
754.82	390.42
755.147	348.9
755.474	341.11
755.802	309.97
756.129	377.45
756.456	372.25
756.783	408.59
757.111	367.06
757.438	361.87
757.765	338.52
758.092	398.21
758.418	473.47
758.745	561.71
759.072	621.4
759.399	647.35
759.726	675.9
760.052	1052.21
760.379	1267.61
760.705	1514.16
761.032	1335.09
761.358	1008.09
761.685	862.76
762.011	764.14
762.337	631.78
762.663	496.83
762.99	452.71
763.316	426.75
763.642	361.87
763.968	470.87
764.294	341.11
764.62	403.4
764.946	354.09
765.271	351.49
765.597	348.9
765.923	367.06
766.248	356.68
766.574	354.09
766.9	361.87
767.225	387.83
767.55	411.18
767.876	364.47
768.201	447.52
768.526	662.92
768.852	416.37
769.177	434.54
769.502	509.8
769.827	520.18
770.152	559.11
770.477	437.14
770.802	434.54
771.127	395.61
771.451	395.61
771.776	455.3
772.101	431.95
772.425	361.87
772.75	421.56
773.075	338.52
773.399	387.83
773.723	335.92
774.048	408.59
774.372	351.49
774.696	377.45
775.02	405.99
775.345	400.8
775.669	390.42
775.993	393.02
776.317	364.47
776.641	333.33
776.965	351.49
777.288	372.25
777.612	361.87
777.936	281.42
778.26	437.14
778.583	393.02
778.907	330.73
779.23	408.59
779.554	364.47
779.877	380.04
780.2	320.35
780.524	367.06
780.847	374.85
781.17	354.09
781.493	367.06
781.816	393.02
782.139	369.66
782.462	380.04
782.785	343.71
783.108	354.09
783.431	418.97
783.754	460.49
784.076	341.11
784.399	385.23
784.722	354.09
785.044	364.47
785.367	478.66
785.689	465.68
786.011	457.9
786.334	442.33
786.656	395.61
786.978	452.71
787.3	429.35
787.622	390.42
787.944	377.45
788.266	374.85
788.588	341.11
788.91	333.33
789.232	398.21
789.554	447.52
789.876	312.56
790.197	429.35
790.519	343.71
790.841	359.28
791.162	322.95
791.483	411.18
791.805	307.37
792.126	385.23
792.448	444.92
792.769	374.85
793.09	465.68
793.411	356.68
793.732	364.47
794.053	356.68
794.374	478.66
794.695	346.3
795.016	354.09
795.337	328.14
795.658	390.42
795.978	328.14
796.299	338.52
796.619	395.61
796.94	434.54
797.261	330.73
797.581	330.73
797.901	408.59
798.222	369.66
798.542	398.21
798.862	341.11
799.182	309.97
799.502	348.9
799.822	398.21
800.142	374.85
800.462	429.35
800.782	372.25
801.102	398.21
801.422	369.66
801.742	463.09
802.061	411.18
802.381	346.3
802.701	405.99
803.02	387.83
803.339	351.49
803.659	387.83
803.978	348.9
804.298	369.66
804.617	405.99
804.936	325.54
805.255	296.99
805.574	398.21
805.893	439.73
806.212	473.47
806.531	520.18
806.85	481.25
807.169	405.99
807.487	416.37
807.806	346.3
808.125	348.9
808.443	385.23
808.762	390.42
809.08	354.09
809.399	416.37
809.717	377.45
810.035	447.52
810.354	553.92
810.672	764.14
810.99	1111.9
811.308	1532.33
811.626	1739.95
811.944	1703.61
812.262	1348.06
812.58	1106.71
812.898	829.02
813.216	611.02
813.533	629.18
813.851	444.92
814.169	408.59
814.486	341.11
814.804	372.25
815.121	377.45
815.438	361.87
815.756	405.99
816.073	398.21
816.39	372.25
816.707	343.71
817.025	434.54
817.342	369.66
817.659	343.71
817.976	382.64
818.292	405.99
818.609	434.54
818.926	486.45
819.243	535.75
819.559	527.97
819.876	530.56
820.193	465.68
820.509	476.06
820.826	507.21
821.142	387.83
821.458	431.95
821.775	330.73
822.091	434.54
822.407	413.78
822.723	322.95
823.039	393.02
823.355	424.16
823.671	289.21
823.987	398.21
824.303	411.18
824.619	361.87
824.935	320.35
825.25	387.83
825.566	374.85
825.881	393.02
826.197	377.45
826.512	548.73
826.828	592.85
827.143	608.42
827.458	496.83
827.774	426.75
828.089	450.11
828.404	421.56
828.719	455.3
829.034	450.11
829.349	400.8
829.664	592.85
829.979	662.92
830.294	673.3
830.608	738.18
830.923	657.73
831.238	556.52
831.552	486.45
831.867	387.83
832.181	354.09
832.496	385.23
832.81	413.78
833.124	434.54
833.439	385.23
833.753	364.47
834.067	333.33
834.381	393.02
834.695	372.25
835.009	468.28
835.323	411.18
835.637	395.61
835.951	382.64
836.264	393.02
836.578	374.85
836.892	418.97
837.205	317.75
837.519	393.02
837.832	284.02
838.146	380.04
838.459	395.61
838.772	361.87
839.086	325.54
839.399	333.33
839.712	325.54
840.025	333.33
840.338	309.97
840.651	343.71
840.964	457.9
841.277	322.95
841.59	374.85
841.902	434.54
842.215	369.66
842.528	405.99
842.84	374.85
843.153	359.28
843.465	403.4
843.778	398.21
844.09	359.28
844.403	437.14
844.715	372.25
845.027	382.64
845.339	374.85
845.651	387.83
845.963	426.75
846.275	382.64
846.587	398.21
846.899	400.8
847.211	416.37
847.523	421.56
847.834	361.87
848.146	322.95
848.457	382.64
848.769	343.71
849.08	377.45
849.392	372.25
849.703	374.85
850.015	361.87
850.326	364.47
850.637	400.8
850.948	434.54
851.259	395.61
851.57	408.59
851.881	421.56
852.192	361.87
852.503	418.97
852.814	385.23
853.125	405.99
853.435	393.02
853.746	408.59
854.056	405.99
854.367	333.33
854.677	400.8
854.988	403.4
855.298	369.66
855.609	385.23
855.919	369.66
856.229	361.87
856.539	434.54
856.849	304.78
857.159	374.85
857.469	335.92
857.779	330.73
858.089	434.54
858.399	374.85
858.708	400.8
859.018	364.47
859.328	372.25
859.637	367.06
859.947	343.71
860.256	356.68
860.566	380.04
860.875	330.73
861.184	426.75
861.494	354.09
861.803	405.99
862.112	367.06
862.421	356.68
862.73	390.42
863.039	328.14
863.348	395.61
863.657	354.09
863.965	364.47
864.274	346.3
864.583	367.06
864.891	374.85
865.2	369.66
865.509	307.37
865.817	322.95
866.125	374.85
866.434	385.23
866.742	455.3
867.05	398.21
867.358	343.71
867.666	405.99
867.975	359.28
868.283	335.92
868.59	364.47
868.898	369.66
869.206	359.28
869.514	356.68
869.822	291.8
870.129	348.9
870.437	387.83
870.744	408.59
871.052	421.56
871.359	411.18
871.667	424.16
871.974	395.61
872.281	354.09
872.589	403.4
872.896	325.54
873.203	377.45
873.51	385.23
873.817	348.9
874.124	393.02
874.431	343.71
874.737	405.99
875.044	359.28
875.351	341.11
875.658	413.78
875.964	354.09
876.271	328.14
876.577	460.49
876.884	393.02
877.19	424.16
877.496	535.75
877.802	569.49
878.109	644.75
878.415	605.83
878.721	616.21
879.027	491.64
879.333	434.54
879.639	380.04
879.945	390.42
880.25	395.61
880.556	416.37
880.862	367.06
881.167	393.02
881.473	387.83
881.778	359.28
882.084	385.23
882.389	333.33
882.695	346.3
883	348.9
883.305	398.21
883.61	343.71
883.915	359.28
884.22	405.99
884.525	382.64
884.83	333.33
885.135	447.52
885.44	346.3
885.745	380.04
886.05	335.92
886.354	312.56
886.659	405.99
886.963	374.85
887.268	325.54
887.572	354.09
887.877	343.71
888.181	359.28
888.485	312.56
888.789	322.95
889.093	390.42
889.398	364.47
889.702	398.21
890.006	400.8
890.309	390.42
890.613	403.4
890.917	411.18
891.221	343.71
891.525	367.06
891.828	393.02
892.132	439.73
892.435	387.83
892.739	473.47
893.042	535.75
893.345	595.45
893.649	483.85
893.952	390.42
894.255	507.21
894.558	465.68
894.861	447.52
895.164	361.87
895.467	351.49
895.77	330.73
896.073	455.3
896.376	380.04
896.678	393.02
896.981	377.45
897.284	398.21
897.586	393.02
897.889	367.06
898.191	315.16
898.493	369.66
898.796	359.28
899.098	341.11
899.4	338.52
899.702	405.99
900.004	361.87
900.306	330.73
900.608	361.87
900.91	439.73
901.212	380.04
901.514	356.68
901.816	351.49
902.117	361.87
902.419	416.37
902.721	268.45
903.022	369.66
903.323	372.25
903.625	377.45
903.926	385.23
904.227	393.02
904.529	330.73
904.83	351.49
905.131	369.66
905.432	457.9
905.733	335.92
906.034	361.87
906.335	304.78
906.636	341.11
906.936	442.33
907.237	343.71
907.538	398.21
907.838	431.95
908.139	356.68
908.439	335.92
908.74	307.37
909.04	328.14
909.34	393.02
909.641	307.37
909.941	364.47
910.241	387.83
910.541	377.45
910.841	361.87
911.141	346.3
911.441	322.95
911.741	359.28
912.04	333.33
912.34	356.68
912.64	380.04
912.939	400.8
913.239	398.21
913.538	380.04
913.838	359.28
914.137	387.83
914.436	351.49
914.736	338.52
915.035	496.83
915.334	361.87
915.633	405.99
915.932	398.21
916.231	372.25
916.53	335.92
916.829	377.45
917.128	374.85
917.426	426.75
917.725	413.78
918.024	359.28
918.322	359.28
918.621	338.52
918.919	452.71
919.217	382.64
919.516	335.92
919.814	309.97
920.112	382.64
920.41	341.11
920.709	382.64
921.007	359.28
921.305	372.25
921.602	377.45
921.9	351.49
922.198	335.92
922.496	387.83
922.794	424.16
923.091	390.42
923.389	413.78
923.686	364.47
923.984	369.66
924.281	346.3
924.578	367.06
924.876	439.73
925.173	348.9
925.47	413.78
925.767	359.28
926.064	364.47
926.361	338.52
926.658	309.97
926.955	367.06
927.252	361.87
927.549	380.04
927.845	382.64
928.142	398.21
928.438	380.04
928.735	335.92
929.031	341.11
929.328	413.78
929.624	364.47
929.92	346.3
930.217	385.23
930.513	330.73
930.809	335.92
931.105	400.8
931.401	364.47
931.697	374.85
931.993	356.68
932.289	416.37
932.584	346.3
932.88	328.14
933.176	348.9
933.471	359.28
933.767	400.8
934.062	369.66
934.358	346.3
934.653	325.54
934.948	278.83
935.244	356.68
935.539	418.97
935.834	390.42
936.129	400.8
936.424	315.16
936.719	354.09
937.014	364.47
937.309	403.4
937.603	408.59
937.898	385.23
938.193	348.9
938.487	395.61
938.782	361.87
939.076	338.52
939.371	385.23
939.665	304.78
939.959	374.85
940.254	434.54
940.548	413.78
940.842	354.09
941.136	364.47
941.43	411.18
941.724	413.78
942.018	330.73
942.311	328.14
942.605	354.09
942.899	372.25
943.193	315.16
943.486	377.45
943.78	367.06
944.073	348.9
944.367	413.78
944.66	338.52
944.953	390.42
945.246	364.47
945.54	382.64
945.833	341.11
946.126	387.83
946.419	325.54
946.712	385.23
947.005	325.54
947.297	361.87
947.59	405.99
947.883	390.42
948.176	374.85
948.468	385.23
948.761	393.02
949.053	354.09
949.346	382.64
949.638	374.85
949.93	317.75
950.222	387.83
950.515	385.23
950.807	398.21
951.099	385.23
951.391	309.97
951.683	333.33
951.975	328.14
952.266	390.42
952.558	348.9
952.85	377.45
953.141	374.85
953.433	309.97
953.725	387.83
954.016	289.21
954.307	426.75
954.599	385.23
954.89	330.73
955.181	369.66
955.472	361.87
955.763	426.75
956.055	291.8
956.346	356.68
956.636	377.45
956.927	393.02
957.218	312.56
957.509	442.33
957.8	322.95
958.09	369.66
958.381	356.68
958.671	338.52
958.962	356.68
959.252	322.95
959.542	356.68
959.833	390.42
960.123	309.97
960.413	385.23
960.703	354.09
960.993	338.52
961.283	372.25
961.573	377.45
961.863	364.47
962.153	354.09
962.442	356.68
962.732	335.92
963.022	369.66
963.311	385.23
963.601	369.66
963.89	395.61
964.18	385.23
964.469	398.21
964.758	322.95
965.047	346.3
965.337	260.66
965.626	380.04
965.915	364.47
966.204	333.33
966.493	426.75
966.781	390.42
967.07	356.68
967.359	338.52
967.648	437.14
967.936	390.42
968.225	335.92
968.513	333.33
968.802	299.59
969.09	296.99
969.378	346.3
969.666	317.75
969.955	312.56
970.243	377.45
970.531	341.11
970.819	333.33
971.107	413.78
971.395	400.8
971.683	338.52
971.97	418.97
972.258	359.28
972.546	330.73
972.833	356.68
973.121	367.06
973.408	380.04
973.696	377.45
973.983	377.45
974.27	395.61
974.558	333.33
974.845	382.64
975.132	359.28
975.419	343.71
975.706	431.95
975.993	328.14
976.28	346.3
976.566	413.78
976.853	338.52
977.14	403.4
977.426	315.16
977.713	348.9
978	346.3
978.286	325.54
978.572	320.35
978.859	338.52
979.145	309.97
979.431	302.18
979.717	380.04
980.003	455.3
980.289	309.97
980.575	408.59
980.861	463.09
981.147	315.16
981.433	387.83
981.719	434.54
982.004	338.52
982.29	330.73
982.575	317.75
982.861	369.66
983.146	320.35
983.432	325.54
983.717	408.59
984.002	382.64
984.287	335.92
984.573	320.35
984.858	338.52
985.143	364.47
985.428	387.83
985.712	447.52
985.997	393.02
986.282	361.87
986.567	426.75
986.851	416.37
987.136	369.66
987.42	335.92
987.705	341.11
987.989	390.42
988.274	343.71
988.558	335.92
988.842	348.9
989.126	413.78
989.41	299.59
989.694	302.18
989.978	302.18
990.262	361.87
990.546	382.64
990.83	346.3
991.114	380.04
991.397	348.9
991.681	346.3
991.965	387.83
992.248	354.09
992.531	367.06
992.815	341.11
993.098	416.37
993.381	380.04
993.665	338.52
993.948	322.95
994.231	351.49
994.514	369.66
994.797	325.54
995.08	330.73
995.362	322.95
995.645	367.06
995.928	398.21
996.211	343.71
996.493	320.35
996.776	354.09
997.058	296.99
997.34	317.75
997.623	380.04
997.905	289.21
998.187	374.85
998.469	284.02
998.752	341.11
999.034	335.92
999.316	341.11
999.597	333.33
999.879	369.66
1000.161	309.97
1000.443	286.61
1000.725	372.25
1001.006	338.52
1001.288	382.64
1001.569	346.3
1001.851	393.02
1002.132	335.92
1002.413	341.11
1002.694	356.68
1002.976	369.66
1003.257	367.06
1003.538	296.99
1003.819	325.54
1004.1	328.14
1004.381	356.68
1004.661	322.95
1004.942	393.02
1005.223	369.66
1005.504	294.4
1005.784	395.61
1006.065	364.47
1006.345	320.35
1006.625	325.54
1006.906	359.28
1007.186	328.14
1007.466	369.66
1007.746	346.3
1008.026	400.8
1008.306	346.3
1008.586	304.78
1008.866	325.54
1009.146	333.33
1009.426	367.06
1009.706	354.09
1009.985	333.33
1010.265	374.85
1010.544	322.95
1010.824	369.66
1011.103	369.66
1011.383	364.47
1011.662	390.42
1011.941	312.56
1012.22	325.54
1012.499	304.78
1012.778	338.52
1013.057	325.54
1013.336	369.66
1013.615	426.75
1013.894	333.33
1014.173	341.11
1014.451	405.99
1014.73	403.4
1015.009	416.37
1015.287	369.66
1015.566	341.11
1015.844	317.75
1016.122	403.4
1016.4	369.66
1016.679	351.49
1016.957	284.02
1017.235	429.35
1017.513	309.97
1017.791	393.02
1018.069	356.68
1018.346	328.14
1018.624	364.47
1018.902	315.16
1019.179	372.25
1019.457	312.56
1019.735	387.83
1020.012	400.8
1020.289	296.99
1020.567	296.99
1020.844	296.99
