Data from Subt2_19-00-18-752.txt Node
Date: Wed Feb 22 19:00:18 CST 2023
User: Optics Lab
Spectrometer: FLMS14302
Trigger mode: 0
Integration Time (sec): 1.000000E-1
Scans to average: 1
Electric dark correction enabled: true
Nonlinearity correction enabled: false
Boxcar width: 0
XAxis mode: Wavelengths
Number of Pixels in Spectrum: 2048
>>>>>Begin Spectral Data<<<<<
338.578	-41.04
338.961	-41.04
339.343	-41.04
339.725	-22.87
340.108	88.72
340.49	-92.94
340.872	67.96
341.254	5.68
341.636	-4.7
342.018	21.25
342.4	-48.82
342.782	3.08
343.164	13.46
343.546	8.27
343.928	47.2
344.309	3.08
344.691	-28.06
345.073	49.8
345.455	0.49
345.836	-43.63
346.218	-2.11
346.599	70.56
346.981	47.2
347.362	18.65
347.744	0.49
348.125	16.06
348.506	130.25
348.888	52.39
349.269	31.63
349.65	-12.49
350.031	54.99
350.413	-2.11
350.794	0.49
351.175	-46.23
351.556	-15.08
351.937	-2.11
352.318	26.44
352.698	3.08
353.079	39.42
353.46	-77.37
353.841	5.68
354.222	-12.49
354.602	-28.06
354.983	47.2
355.363	-46.23
355.744	54.99
356.124	161.39
356.505	39.42
356.885	31.63
357.266	8.27
357.646	101.7
358.026	-15.08
358.407	99.11
358.787	16.06
359.167	10.87
359.547	-30.66
359.927	156.2
360.307	5.68
360.687	23.84
361.067	36.82
361.447	13.46
361.827	39.42
362.207	-46.23
362.587	3.08
362.966	-15.08
363.346	8.27
363.726	47.2
364.105	3.08
364.485	86.13
364.865	-35.85
365.244	-4.7
365.624	-56.61
366.003	75.75
366.382	-7.3
366.762	88.72
367.141	42.01
367.52	75.75
367.899	-12.49
368.279	-7.3
368.658	-17.68
369.037	21.25
369.416	-33.25
369.795	0.49
370.174	8.27
370.553	-64.39
370.932	-7.3
371.311	-56.61
371.689	36.82
372.068	5.68
372.447	62.77
372.825	-43.63
373.204	-17.68
373.583	-61.8
373.961	67.96
374.34	73.15
374.718	-113.7
375.097	54.99
375.475	57.58
375.853	-7.3
376.232	31.63
376.61	36.82
376.988	23.84
377.366	16.06
377.744	60.18
378.122	5.68
378.5	-41.04
378.878	-38.44
379.256	26.44
379.634	-46.23
380.012	16.06
380.39	10.87
380.768	-95.54
381.145	-4.7
381.523	5.68
381.901	3.08
382.278	36.82
382.656	-30.66
383.033	34.22
383.411	99.11
383.788	-69.58
384.166	0.49
384.543	93.92
384.921	127.65
385.298	86.13
385.675	34.22
386.052	-4.7
386.429	119.87
386.806	34.22
387.184	122.46
387.561	127.65
387.938	-48.82
388.314	-41.04
388.691	23.84
389.068	83.53
389.445	-28.06
389.822	-28.06
390.198	8.27
390.575	-33.25
390.952	3.08
391.328	-48.82
391.705	80.94
392.081	36.82
392.458	31.63
392.834	-22.87
393.211	65.37
393.587	10.87
393.963	-98.13
394.34	-15.08
394.716	-46.23
395.092	-28.06
395.468	21.25
395.844	5.68
396.22	96.51
396.596	-98.13
396.972	23.84
397.348	-15.08
397.724	-9.89
398.1	13.46
398.476	16.06
398.851	39.42
399.227	3.08
399.603	-12.49
399.978	13.46
400.354	0.49
400.729	0.49
401.105	34.22
401.48	21.25
401.856	3.08
402.231	73.15
402.606	-9.89
402.982	-7.3
403.357	-46.23
403.732	8.27
404.107	75.75
404.482	44.61
404.857	44.61
405.232	10.87
405.607	26.44
405.982	29.03
406.357	-59.2
406.732	18.65
407.107	-61.8
407.482	-38.44
407.856	-82.56
408.231	18.65
408.606	-9.89
408.98	-25.47
409.355	44.61
409.729	-7.3
410.104	73.15
410.478	16.06
410.852	39.42
411.227	34.22
411.601	60.18
411.975	-25.47
412.35	96.51
412.724	-46.23
413.098	39.42
413.472	125.06
413.846	-56.61
414.22	-33.25
414.594	26.44
414.968	36.82
415.342	-46.23
415.715	-7.3
416.089	31.63
416.463	-51.42
416.837	0.49
417.21	-7.3
417.584	-33.25
417.957	-41.04
418.331	-12.49
418.704	-41.04
419.078	101.7
419.451	47.2
419.824	114.68
420.198	-4.7
420.571	34.22
420.944	62.77
421.317	-15.08
421.69	119.87
422.064	18.65
422.437	34.22
422.81	-59.2
423.182	91.32
423.555	109.49
423.928	-41.04
424.301	23.84
424.674	54.99
425.047	-25.47
425.419	-4.7
425.792	-15.08
426.164	-17.68
426.537	-95.54
426.91	26.44
427.282	83.53
427.654	-9.89
428.027	-2.11
428.399	47.2
428.771	36.82
429.144	91.32
429.516	-17.68
429.888	-77.37
430.26	-20.28
430.632	-46.23
431.004	73.15
431.376	34.22
431.748	26.44
432.12	-56.61
432.492	-2.11
432.864	31.63
433.236	-79.97
433.607	-113.7
433.979	10.87
434.351	78.34
434.722	26.44
435.094	65.37
435.465	31.63
435.837	187.34
436.208	285.96
436.58	350.84
436.951	122.46
437.322	127.65
437.693	47.2
438.065	54.99
438.436	83.53
438.807	-46.23
439.178	44.61
439.549	-20.28
439.92	101.7
440.291	3.08
440.662	-43.63
441.033	96.51
441.403	104.3
441.774	47.2
442.145	127.65
442.516	93.92
442.886	122.46
443.257	125.06
443.627	91.32
443.998	112.08
444.368	5.68
444.739	67.96
445.109	109.49
445.479	78.34
445.85	93.92
446.22	-33.25
446.59	0.49
446.96	163.99
447.33	106.89
447.7	122.46
448.07	119.87
448.44	138.03
448.81	99.11
449.18	80.94
449.55	88.72
449.92	31.63
450.29	-79.97
450.659	65.37
451.029	208.11
451.399	208.11
451.768	213.3
452.138	106.89
452.507	101.7
452.877	156.2
453.246	239.25
453.615	169.18
453.985	122.46
454.354	291.15
454.723	210.7
455.092	208.11
455.462	91.32
455.831	208.11
456.2	265.2
456.569	210.7
456.938	171.77
457.307	249.63
457.675	223.68
458.044	184.75
458.413	226.27
458.782	202.92
459.15	262.61
459.519	213.3
459.888	140.63
460.256	176.96
460.625	182.15
460.993	158.8
461.362	42.01
461.73	122.46
462.098	88.72
462.467	221.08
462.835	138.03
463.203	202.92
463.571	145.82
463.939	119.87
464.307	226.27
464.675	29.03
465.043	138.03
465.411	189.94
465.779	166.58
466.147	114.68
466.515	187.34
466.883	169.18
467.25	236.65
467.618	202.92
467.986	143.22
468.353	166.58
468.721	132.84
469.088	135.44
469.456	127.65
469.823	218.49
470.19	166.58
470.558	176.96
470.925	153.61
471.292	60.18
471.659	218.49
472.027	197.72
472.394	176.96
472.761	130.25
473.128	187.34
473.495	215.89
473.862	78.34
474.228	171.77
474.595	161.39
474.962	156.2
475.329	161.39
475.695	122.46
476.062	143.22
476.429	119.87
476.795	119.87
477.162	125.06
477.528	93.92
477.895	52.39
478.261	70.56
478.627	187.34
478.994	114.68
479.36	31.63
479.726	39.42
480.092	145.82
480.458	104.3
480.824	101.7
481.19	3.08
481.556	104.3
481.922	60.18
482.288	163.99
482.654	182.15
483.02	39.42
483.385	184.75
483.751	156.2
484.117	125.06
484.482	70.56
484.848	156.2
485.213	145.82
485.579	143.22
485.944	29.03
486.31	125.06
486.675	148.42
487.04	158.8
487.406	187.34
487.771	166.58
488.136	138.03
488.501	86.13
488.866	127.65
489.231	260.01
489.596	169.18
489.961	262.61
490.326	163.99
490.691	34.22
491.056	241.84
491.42	106.89
491.785	75.75
492.15	202.92
492.514	210.7
492.879	158.8
493.243	179.56
493.608	148.42
493.972	171.77
494.337	272.99
494.701	18.65
495.065	143.22
495.43	143.22
495.794	166.58
496.158	127.65
496.522	166.58
496.886	140.63
497.25	114.68
497.614	127.65
497.978	117.27
498.342	67.96
498.706	54.99
499.07	96.51
499.433	60.18
499.797	179.56
500.161	145.82
500.524	96.51
500.888	54.99
501.251	171.77
501.615	148.42
501.978	140.63
502.342	65.37
502.705	153.61
503.068	187.34
503.432	143.22
503.795	78.34
504.158	195.13
504.521	125.06
504.884	138.03
505.247	73.15
505.61	62.77
505.973	161.39
506.336	236.65
506.699	44.61
507.062	75.75
507.424	202.92
507.787	210.7
508.15	176.96
508.512	205.51
508.875	54.99
509.238	231.46
509.6	148.42
509.962	135.44
510.325	99.11
510.687	122.46
511.049	29.03
511.412	226.27
511.774	67.96
512.136	161.39
512.498	135.44
512.86	156.2
513.222	-46.23
513.584	112.08
513.946	73.15
514.308	88.72
514.67	202.92
515.032	161.39
515.393	270.39
515.755	148.42
516.117	104.3
516.478	93.92
516.84	158.8
517.201	202.92
517.563	163.99
517.924	182.15
518.286	125.06
518.647	122.46
519.008	130.25
519.37	88.72
519.731	125.06
520.092	73.15
520.453	145.82
520.814	101.7
521.175	200.32
521.536	218.49
521.897	257.42
522.258	179.56
522.619	130.25
522.979	179.56
523.34	221.08
523.701	151.01
524.061	112.08
524.422	221.08
524.783	252.22
525.143	283.37
525.504	130.25
525.864	171.77
526.224	169.18
526.585	117.27
526.945	153.61
527.305	122.46
527.665	119.87
528.025	189.94
528.385	210.7
528.746	140.63
529.106	239.25
529.465	169.18
529.825	179.56
530.185	221.08
530.545	117.27
530.905	215.89
531.264	304.13
531.624	205.51
531.984	205.51
532.343	138.03
532.703	151.01
533.062	143.22
533.422	192.53
533.781	151.01
534.141	148.42
534.5	99.11
534.859	223.68
535.218	163.99
535.577	99.11
535.937	174.37
536.296	101.7
536.655	189.94
537.014	254.82
537.373	231.46
537.731	125.06
538.09	218.49
538.449	210.7
538.808	236.65
539.166	158.8
539.525	257.42
539.884	293.75
540.242	231.46
540.601	213.3
540.959	241.84
541.318	218.49
541.676	324.89
542.034	444.27
542.393	542.89
542.751	631.13
543.109	610.37
543.467	750.51
543.825	602.58
544.183	625.94
544.541	670.06
544.899	675.25
545.257	610.37
545.615	612.96
545.973	563.65
546.331	574.03
546.688	747.92
547.046	503.96
547.404	381.99
547.761	361.22
548.119	262.61
548.476	322.3
548.834	356.03
549.191	311.92
549.548	244.44
549.906	226.27
550.263	156.2
550.62	278.18
550.977	231.46
551.334	231.46
551.691	249.63
552.048	257.42
552.405	192.53
552.762	314.51
553.119	257.42
553.476	210.7
553.833	171.77
554.189	205.51
554.546	205.51
554.903	197.72
555.259	184.75
555.616	161.39
555.972	166.58
556.329	208.11
556.685	215.89
557.042	140.63
557.398	153.61
557.754	184.75
558.11	127.65
558.467	78.34
558.823	101.7
559.179	187.34
559.535	93.92
559.891	143.22
560.247	99.11
560.603	93.92
560.958	179.56
561.314	166.58
561.67	109.49
562.026	158.8
562.381	101.7
562.737	132.84
563.092	106.89
563.448	151.01
563.803	179.56
564.159	135.44
564.514	78.34
564.869	148.42
565.225	171.77
565.58	23.84
565.935	140.63
566.29	197.72
566.645	127.65
567	93.92
567.355	179.56
567.71	86.13
568.065	106.89
568.42	49.8
568.775	80.94
569.13	169.18
569.484	91.32
569.839	13.46
570.193	140.63
570.548	104.3
570.903	127.65
571.257	31.63
571.611	163.99
571.966	140.63
572.32	-28.06
572.674	75.75
573.029	23.84
573.383	73.15
573.737	10.87
574.091	163.99
574.445	117.27
574.799	169.18
575.153	78.34
575.507	127.65
575.861	151.01
576.215	112.08
576.568	101.7
576.922	44.61
577.276	54.99
577.629	132.84
577.983	62.77
578.336	57.58
578.69	75.75
579.043	112.08
579.397	130.25
579.75	0.49
580.103	21.25
580.456	153.61
580.81	145.82
581.163	73.15
581.516	130.25
581.869	101.7
582.222	135.44
582.575	57.58
582.928	125.06
583.281	138.03
583.633	93.92
583.986	125.06
584.339	143.22
584.691	16.06
585.044	39.42
585.397	148.42
585.749	218.49
586.102	93.92
586.454	132.84
586.806	192.53
587.159	-28.06
587.511	-61.8
587.863	-35.85
588.215	-25.47
588.567	13.46
588.92	-12.49
589.272	5.68
589.624	83.53
589.975	96.51
590.327	-59.2
590.679	-30.66
591.031	-46.23
591.383	-79.97
591.734	-90.35
592.086	-12.49
592.438	-69.58
592.789	-124.08
593.141	-199.35
593.492	-178.58
593.844	-217.51
594.195	-251.25
594.546	-209.73
594.898	-144.85
595.249	-92.94
595.6	-95.54
595.951	-77.37
596.302	-41.04
596.653	-98.13
597.004	-105.92
597.355	-72.18
597.706	-43.63
598.057	-98.13
598.408	-90.35
598.758	-170.8
599.109	-225.3
599.46	-290.18
599.81	-425.13
600.161	-370.63
600.511	-435.51
600.862	-412.16
601.212	-272.01
601.562	-308.35
601.913	-214.92
602.263	-152.63
602.613	-157.82
602.963	-118.89
603.313	-142.25
603.663	-188.97
604.013	-126.68
604.363	-129.28
604.713	-129.28
605.063	-199.35
605.413	-191.56
605.763	-222.7
606.112	-217.51
606.462	-336.89
606.812	-227.89
607.161	-279.8
607.511	-365.44
607.86	-484.82
608.21	-661.3
608.559	-611.99
608.908	-936.4
609.258	-1255.61
609.607	-1429.49
609.956	-2182.11
610.305	-3147.54
610.654	-5485.85
611.003	-9453.97
611.352	-14561.4
611.701	-17766.53
612.05	-17024.29
612.399	-14667.81
612.748	-11633.97
613.097	-9277.5
613.445	-7684.02
613.794	-6176.18
614.143	-5732.4
614.491	-5286.02
614.84	-4948.64
615.188	-4608.66
615.537	-4136.33
615.885	-3477.13
616.233	-2994.42
616.581	-2524.68
616.93	-2096.47
617.278	-1899.23
617.626	-1720.16
617.974	-1556.66
618.322	-1364.61
618.67	-1413.92
619.018	-1445.06
619.366	-1600.78
619.714	-1520.32
620.061	-1592.99
620.409	-1676.04
620.757	-1722.75
621.104	-1795.42
621.452	-1764.28
621.799	-1580.01
622.147	-1668.25
622.494	-1546.28
622.842	-1598.18
623.189	-1598.18
623.536	-1349.04
623.884	-1419.11
624.231	-1421.7
624.578	-1481.4
624.925	-1434.68
625.272	-1278.97
625.619	-1341.25
625.966	-1289.35
626.313	-1092.11
626.66	-1094.7
627.007	-1208.9
627.353	-1068.75
627.7	-1120.66
628.047	-1167.37
628.393	-1118.06
628.74	-1154.4
629.086	-1164.78
629.433	-1182.94
629.779	-1291.94
630.125	-1471.01
630.472	-1733.13
630.818	-2215.85
631.164	-2763.44
631.51	-3067.09
631.857	-2976.25
632.203	-2397.52
632.549	-1798.01
632.895	-1281.56
633.24	-936.4
633.586	-785.87
633.932	-547.11
634.278	-368.04
634.624	-310.94
634.969	-326.51
635.315	-209.73
635.66	-313.54
636.006	-264.23
636.351	-243.47
636.697	-186.37
637.042	-118.89
637.388	-227.89
637.733	-95.54
638.078	-43.63
638.423	433.89
638.768	880.27
639.113	1046.37
639.458	1209.87
639.803	1152.77
640.148	929.58
640.493	524.73
640.838	405.34
641.183	80.94
641.527	67.96
641.872	-15.08
642.217	-113.7
642.561	-56.61
642.906	-175.99
643.25	-155.23
643.595	-157.82
643.939	-134.47
644.284	-290.18
644.628	-142.25
644.972	-194.16
645.316	-253.85
645.66	-170.8
646.004	-165.61
646.348	-225.3
646.692	-152.63
647.036	-150.04
647.38	-207.13
647.724	-259.04
648.068	-168.2
648.412	-194.16
648.755	-222.7
649.099	-287.59
649.443	-220.11
649.786	-310.94
650.13	-401.78
650.473	-733.97
650.816	-915.63
651.16	-1011.66
651.503	-905.25
651.846	-728.78
652.189	-500.39
652.533	-357.66
652.876	-412.16
653.219	-419.94
653.562	-502.99
653.905	-414.75
654.247	-383.61
654.59	-256.44
654.933	-295.37
655.276	-253.85
655.619	-201.94
655.961	-144.85
656.304	-214.92
656.646	-64.39
656.989	-137.06
657.331	-7.3
657.674	-214.92
658.016	-251.25
658.358	-217.51
658.701	-191.56
659.043	-209.73
659.385	-235.68
659.727	-118.89
660.069	-181.18
660.411	-188.97
660.753	-98.13
661.095	-90.35
661.437	-98.13
661.778	-235.68
662.12	-269.42
662.462	-344.68
662.804	-614.59
663.145	-611.99
663.487	-432.92
663.828	-456.28
664.17	-440.7
664.511	-326.51
664.852	-391.39
665.194	-282.39
665.535	-214.92
665.876	-139.66
666.217	-87.75
666.558	-152.63
666.899	-207.13
667.24	-209.73
667.581	-196.75
667.922	-240.87
668.263	-147.44
668.604	-264.23
668.944	-310.94
669.285	-269.42
669.626	-238.28
669.966	-103.32
670.307	-188.97
670.647	-116.3
670.988	-168.2
671.328	-77.37
671.669	-240.87
672.009	-207.13
672.349	-175.99
672.689	-66.99
673.029	-207.13
673.369	-66.99
673.71	-264.23
674.049	-59.2
674.389	-173.39
674.729	-212.32
675.069	-98.13
675.409	-35.85
675.749	-152.63
676.088	-43.63
676.428	-129.28
676.768	-155.23
677.107	-272.01
677.447	-204.54
677.786	-72.18
678.125	-82.56
678.465	-113.7
678.804	-98.13
679.143	-256.44
679.482	-165.61
679.821	-137.06
680.161	-134.47
680.5	-152.63
680.839	-178.58
681.177	-282.39
681.516	-144.85
681.855	-165.61
682.194	-100.73
682.533	-160.42
682.871	-113.7
683.21	-150.04
683.549	-82.56
683.887	-188.97
684.225	-92.94
684.564	-79.97
684.902	-77.37
685.241	-59.2
685.579	-56.61
685.917	-51.42
686.255	-147.44
686.593	-139.66
686.931	-230.49
687.269	-362.85
687.607	-502.99
687.945	-477.04
688.283	-443.3
688.621	-487.42
688.959	-435.51
689.296	-295.37
689.634	-282.39
689.972	-204.54
690.309	-126.68
690.647	-201.94
690.984	-168.2
691.322	-165.61
691.659	-38.44
691.996	-41.04
692.333	-77.37
692.671	-92.94
693.008	-170.8
693.345	-173.39
693.682	-313.54
694.019	-458.87
694.356	-290.18
694.693	-368.04
695.03	-261.63
695.366	-217.51
695.703	-165.61
696.04	-74.78
696.376	-147.44
696.713	-129.28
697.05	-82.56
697.386	-150.04
697.722	26.44
698.059	5.68
698.395	91.32
698.731	-41.04
699.068	-41.04
699.404	-118.89
699.74	-43.63
700.076	47.2
700.412	39.42
700.748	10.87
701.084	16.06
701.42	5.68
701.756	-4.7
702.091	-113.7
702.427	-69.58
702.763	-157.82
703.098	-137.06
703.434	-79.97
703.769	-82.56
704.105	-116.3
704.44	-170.8
704.776	-108.51
705.111	-240.87
705.446	-313.54
705.781	-336.89
706.117	-500.39
706.452	-666.49
706.787	-845.56
707.122	-1156.99
707.457	-1201.11
707.792	-1224.47
708.126	-1177.75
708.461	-1050.59
708.796	-1068.75
709.131	-1439.87
709.465	-1590.4
709.8	-1561.85
710.134	-1250.42
710.469	-1032.42
710.803	-744.35
711.138	-622.37
711.472	-484.82
711.806	-601.61
712.14	-785.87
712.475	-1128.44
712.809	-1245.23
713.143	-1118.06
713.477	-1066.16
713.811	-682.06
714.145	-567.87
714.479	-383.61
714.812	-292.78
715.146	-183.78
715.48	-59.2
715.814	-126.68
716.147	-74.78
716.481	-82.56
716.814	-28.06
717.148	18.65
717.481	42.01
717.814	52.39
718.148	-41.04
718.481	-38.44
718.814	-15.08
719.147	36.82
719.48	-87.75
719.813	-17.68
720.146	-54.01
720.479	-38.44
720.812	34.22
721.145	10.87
721.478	-17.68
721.81	-46.23
722.143	-12.49
722.476	23.84
722.808	10.87
723.141	-79.97
723.473	-126.68
723.806	104.3
724.138	39.42
724.47	-90.35
724.803	34.22
725.135	16.06
725.467	36.82
725.799	36.82
726.131	-12.49
726.463	-79.97
726.795	-9.89
727.127	73.15
727.459	47.2
727.791	10.87
728.122	44.61
728.454	10.87
728.786	13.46
729.117	-66.99
729.449	-30.66
729.78	3.08
730.112	-100.73
730.443	-95.54
730.774	-12.49
731.106	-33.25
731.437	39.42
731.768	-12.49
732.099	21.25
732.43	78.34
732.761	-9.89
733.092	-108.51
733.423	-82.56
733.754	-30.66
734.085	-38.44
734.416	-66.99
734.746	-30.66
735.077	-59.2
735.407	26.44
735.738	-12.49
736.068	109.49
736.399	10.87
736.729	34.22
737.06	44.61
737.39	31.63
737.72	36.82
738.05	-43.63
738.38	-22.87
738.71	23.84
739.041	-28.06
739.37	0.49
739.7	-20.28
740.03	10.87
740.36	13.46
740.69	44.61
741.02	-38.44
741.349	73.15
741.679	8.27
742.008	44.61
742.338	-59.2
742.667	-33.25
742.997	-77.37
743.326	-25.47
743.655	44.61
743.984	60.18
744.314	-56.61
744.643	54.99
744.972	5.68
745.301	-137.06
745.63	-77.37
745.959	-15.08
746.288	-64.39
746.616	-98.13
746.945	21.25
747.274	10.87
747.603	-77.37
747.931	5.68
748.26	21.25
748.588	57.58
748.917	39.42
749.245	54.99
749.573	-25.47
749.902	-7.3
750.23	5.68
750.558	-9.89
750.886	-85.16
751.214	0.49
751.542	-17.68
751.87	-28.06
752.198	-9.89
752.526	-9.89
752.854	-66.99
753.182	-38.44
753.509	-79.97
753.837	-28.06
754.165	3.08
754.492	-56.61
754.82	-2.11
755.147	-17.68
755.474	-28.06
755.802	80.94
756.129	5.68
756.456	62.77
756.783	106.89
757.111	-43.63
757.438	-46.23
757.765	-28.06
758.092	60.18
758.418	8.27
758.745	-124.08
759.072	-43.63
759.399	-178.58
759.726	-269.42
760.052	-248.66
760.379	-456.28
760.705	-549.7
761.032	-440.7
761.358	-235.68
761.685	-222.7
762.011	-199.35
762.337	-100.73
762.663	-35.85
762.99	-7.3
763.316	-20.28
763.642	-20.28
763.968	49.8
764.294	-41.04
764.62	-59.2
764.946	23.84
765.271	44.61
765.597	156.2
765.923	-77.37
766.248	34.22
766.574	13.46
766.9	-54.01
767.225	52.39
767.55	52.39
767.876	3.08
768.201	-69.58
768.526	57.58
768.852	-12.49
769.177	47.2
769.502	-59.2
769.827	-59.2
770.152	-43.63
770.477	-103.32
770.802	-85.16
771.127	112.08
771.451	49.8
771.776	36.82
772.101	-54.01
772.425	-35.85
772.75	67.96
773.075	-41.04
773.399	65.37
773.723	26.44
774.048	-25.47
774.372	0.49
774.696	-15.08
775.02	18.65
775.345	26.44
775.669	49.8
775.993	8.27
776.317	145.82
776.641	10.87
776.965	-2.11
777.288	16.06
777.612	-87.75
777.936	8.27
778.26	-28.06
778.583	10.87
778.907	42.01
779.23	-28.06
779.554	5.68
779.877	-33.25
780.2	16.06
780.524	-61.8
780.847	96.51
781.17	-2.11
781.493	-4.7
781.816	-48.82
782.139	5.68
782.462	3.08
782.785	-113.7
783.108	-17.68
783.431	-69.58
783.754	-4.7
784.076	44.61
784.399	70.56
784.722	3.08
785.044	86.13
785.367	67.96
785.689	-12.49
786.011	26.44
786.334	-17.68
786.656	-54.01
786.978	-9.89
787.3	-9.89
787.622	-12.49
787.944	49.8
788.266	104.3
788.588	8.27
788.91	-59.2
789.232	62.77
789.554	42.01
789.876	42.01
790.197	62.77
790.519	-121.49
790.841	39.42
791.162	54.99
791.483	-2.11
791.805	-92.94
792.126	-7.3
792.448	-20.28
792.769	-74.78
793.09	-15.08
793.411	10.87
793.732	65.37
794.053	-7.3
794.374	78.34
794.695	34.22
795.016	-92.94
795.337	18.65
795.658	13.46
795.978	39.42
796.299	-33.25
796.619	-98.13
796.94	-9.89
797.261	-2.11
797.581	21.25
797.901	-25.47
798.222	16.06
798.542	49.8
798.862	99.11
799.182	44.61
799.502	-51.42
799.822	104.3
800.142	5.68
800.462	-43.63
800.782	-43.63
801.102	10.87
801.422	8.27
801.742	3.08
802.061	16.06
802.381	5.68
802.701	-28.06
803.02	52.39
803.339	13.46
803.659	36.82
803.978	31.63
804.298	13.46
804.617	112.08
804.936	49.8
805.255	-4.7
805.574	-20.28
805.893	-54.01
806.212	21.25
806.531	-51.42
806.85	-152.63
807.169	-41.04
807.487	-9.89
807.806	0.49
808.125	44.61
808.443	-48.82
808.762	-85.16
809.08	-95.54
809.399	83.53
809.717	-7.3
810.035	39.42
810.354	-35.85
810.672	-108.51
810.99	-334.3
811.308	-567.87
811.626	-788.47
811.944	-752.13
812.262	-596.42
812.58	-471.85
812.898	-360.25
813.216	-178.58
813.533	-64.39
813.851	-64.39
814.169	-12.49
814.486	23.84
814.804	-4.7
815.121	78.34
815.438	-46.23
815.756	104.3
816.073	-54.01
816.39	-25.47
816.707	18.65
817.025	3.08
817.342	8.27
817.659	-77.37
817.976	-7.3
818.292	-150.04
818.609	70.56
818.926	-56.61
819.243	-87.75
819.559	-152.63
819.876	-61.8
820.193	-103.32
820.509	-15.08
820.826	-33.25
821.142	23.84
821.458	-2.11
821.775	62.77
822.091	57.58
822.407	-77.37
822.723	-2.11
823.039	-66.99
823.355	-17.68
823.671	21.25
823.987	-64.39
824.303	0.49
824.619	57.58
824.935	117.27
825.25	-20.28
825.566	31.63
825.881	-20.28
826.197	-95.54
826.512	-157.82
826.828	39.42
827.143	-64.39
827.458	-9.89
827.774	-61.8
828.089	-15.08
828.404	-118.89
828.719	-20.28
829.034	-30.66
829.349	-15.08
829.664	-25.47
829.979	-142.25
830.294	-295.37
830.608	-201.94
830.923	-129.28
831.238	-92.94
831.552	-74.78
831.867	-43.63
832.181	-116.3
832.496	3.08
832.81	16.06
833.124	-41.04
833.439	-9.89
833.753	-15.08
834.067	75.75
834.381	-9.89
834.695	-25.47
835.009	10.87
835.323	80.94
835.637	-90.35
835.951	65.37
836.264	8.27
836.578	34.22
836.892	21.25
837.205	29.03
837.519	39.42
837.832	-35.85
838.146	-22.87
838.459	31.63
838.772	-134.47
839.086	73.15
839.399	-85.16
839.712	21.25
840.025	-9.89
840.338	-46.23
840.651	60.18
840.964	-4.7
841.277	-188.97
841.59	148.42
841.902	109.49
842.215	-46.23
842.528	47.2
842.84	-66.99
843.153	54.99
843.465	13.46
843.778	67.96
844.09	-90.35
844.403	39.42
844.715	49.8
845.027	13.46
845.339	-103.32
845.651	-12.49
845.963	-46.23
846.275	52.39
846.587	-12.49
846.899	44.61
847.211	36.82
847.523	0.49
847.834	-43.63
848.146	78.34
848.457	101.7
848.769	-43.63
849.08	119.87
849.392	57.58
849.703	-48.82
850.015	-61.8
850.326	-30.66
850.637	-85.16
850.948	-100.73
851.259	-12.49
851.57	21.25
851.881	-28.06
852.192	-4.7
852.503	75.75
852.814	-51.42
853.125	106.89
853.435	-28.06
853.746	47.2
854.056	-38.44
854.367	31.63
854.677	-95.54
854.988	3.08
855.298	-41.04
855.609	65.37
855.919	86.13
856.229	-25.47
856.539	18.65
856.849	122.46
857.159	34.22
857.469	-2.11
857.779	5.68
858.089	10.87
858.399	0.49
858.708	-28.06
859.018	78.34
859.328	52.39
859.637	-25.47
859.947	16.06
860.256	23.84
860.566	-38.44
860.875	-100.73
861.184	-118.89
861.494	-82.56
861.803	23.84
862.112	44.61
862.421	80.94
862.73	106.89
863.039	-12.49
863.348	29.03
863.657	29.03
863.965	-72.18
864.274	-28.06
864.583	0.49
864.891	-4.7
865.2	-30.66
865.509	5.68
865.817	-22.87
866.125	-54.01
866.434	47.2
866.742	-33.25
867.05	5.68
867.358	62.77
867.666	-9.89
867.975	10.87
868.283	16.06
868.59	86.13
868.898	16.06
869.206	52.39
869.514	86.13
869.822	-95.54
870.129	23.84
870.437	-85.16
870.744	-56.61
871.052	49.8
871.359	78.34
871.667	13.46
871.974	-9.89
872.281	18.65
872.589	62.77
872.896	10.87
873.203	-28.06
873.51	-17.68
873.817	-25.47
874.124	23.84
874.431	10.87
874.737	106.89
875.044	-85.16
875.351	83.53
875.658	-28.06
875.964	-2.11
876.271	-28.06
876.577	10.87
876.884	-46.23
877.19	-12.49
877.496	10.87
877.802	-12.49
878.109	-196.75
878.415	-41.04
878.721	-15.08
879.027	-113.7
879.333	47.2
879.639	29.03
879.945	-33.25
880.25	16.06
880.556	96.51
880.862	-7.3
881.167	5.68
881.473	10.87
881.778	29.03
882.084	-2.11
882.389	54.99
882.695	54.99
883	47.2
883.305	16.06
883.61	-20.28
883.915	-64.39
884.22	-79.97
884.525	26.44
884.83	10.87
885.135	-12.49
885.44	57.58
885.745	3.08
886.05	86.13
886.354	78.34
886.659	-35.85
886.963	65.37
887.268	-2.11
887.572	-54.01
887.877	54.99
888.181	26.44
888.485	80.94
888.789	-46.23
889.093	73.15
889.398	49.8
889.702	78.34
890.006	47.2
890.309	42.01
890.613	93.92
890.917	47.2
891.221	-7.3
891.525	-46.23
891.828	49.8
892.132	-59.2
892.435	-82.56
892.739	-22.87
893.042	-28.06
893.345	-77.37
893.649	-100.73
893.952	-41.04
894.255	-66.99
894.558	-121.49
894.861	-103.32
895.164	-38.44
895.467	-4.7
895.77	54.99
896.073	106.89
896.376	49.8
896.678	-17.68
896.981	42.01
897.284	-90.35
897.586	86.13
897.889	-35.85
898.191	3.08
898.493	-66.99
898.796	-17.68
899.098	-2.11
899.4	-59.2
899.702	54.99
900.004	23.84
900.306	-74.78
900.608	93.92
900.91	101.7
901.212	44.61
901.514	101.7
901.816	10.87
902.117	47.2
902.419	26.44
902.721	-59.2
903.022	-15.08
903.323	3.08
903.625	26.44
903.926	8.27
904.227	-7.3
904.529	8.27
904.83	65.37
905.131	-4.7
905.432	62.77
905.733	8.27
906.034	-41.04
906.335	44.61
906.636	60.18
906.936	-54.01
907.237	0.49
907.538	-33.25
907.838	112.08
908.139	62.77
908.439	62.77
908.74	-20.28
909.04	36.82
909.34	62.77
909.641	29.03
909.941	109.49
910.241	-46.23
910.541	21.25
910.841	-90.35
911.141	0.49
911.441	18.65
911.741	145.82
912.04	-56.61
912.34	60.18
912.64	-17.68
912.939	36.82
913.239	13.46
913.538	-56.61
913.838	47.2
914.137	-17.68
914.436	75.75
914.736	18.65
915.035	-56.61
915.334	5.68
915.633	-22.87
915.932	-43.63
916.231	62.77
916.53	-33.25
916.829	-95.54
917.128	-41.04
917.426	52.39
917.725	-43.63
918.024	5.68
918.322	67.96
918.621	-12.49
918.919	86.13
919.217	5.68
919.516	-22.87
919.814	-64.39
920.112	31.63
920.41	-2.11
920.709	3.08
921.007	5.68
921.305	36.82
921.602	10.87
921.9	119.87
922.198	3.08
922.496	-4.7
922.794	127.65
923.091	3.08
923.389	34.22
923.686	75.75
923.984	-51.42
924.281	13.46
924.578	54.99
924.876	54.99
925.173	23.84
925.47	0.49
925.767	34.22
926.064	-59.2
926.361	-12.49
926.658	-33.25
926.955	13.46
927.252	18.65
927.549	3.08
927.845	-4.7
928.142	47.2
928.438	8.27
928.735	10.87
929.031	39.42
929.328	0.49
929.624	-17.68
929.92	0.49
930.217	23.84
930.513	36.82
930.809	-69.58
931.105	75.75
931.401	-35.85
931.697	-48.82
931.993	67.96
932.289	-7.3
932.584	-48.82
932.88	-108.51
933.176	-33.25
933.471	13.46
933.767	-7.3
934.062	8.27
934.358	-25.47
934.653	-9.89
934.948	-43.63
935.244	-54.01
935.539	-9.89
935.834	-20.28
936.129	-61.8
936.424	57.58
936.719	-4.7
937.014	67.96
937.309	78.34
937.603	-7.3
937.898	23.84
938.193	-48.82
938.487	0.49
938.782	-20.28
939.076	-48.82
939.371	-105.92
939.665	8.27
939.959	-7.3
940.254	-35.85
940.548	3.08
940.842	-30.66
941.136	42.01
941.43	-69.58
941.724	0.49
942.018	-59.2
942.311	16.06
942.605	-15.08
942.899	18.65
943.193	39.42
943.486	8.27
943.78	-54.01
944.073	-98.13
944.367	-66.99
944.66	42.01
944.953	83.53
945.246	52.39
945.54	54.99
945.833	0.49
946.126	0.49
946.419	65.37
946.712	16.06
947.005	29.03
947.297	10.87
947.59	-17.68
947.883	96.51
948.176	39.42
948.468	52.39
948.761	73.15
949.053	39.42
949.346	-74.78
949.638	10.87
949.93	-103.32
950.222	-17.68
950.515	-30.66
950.807	10.87
951.099	-103.32
951.391	-17.68
951.683	-48.82
951.975	62.77
952.266	80.94
952.558	60.18
952.85	-38.44
953.141	70.56
953.433	88.72
953.725	-4.7
954.016	0.49
954.307	18.65
954.599	52.39
954.89	78.34
955.181	-51.42
955.472	117.27
955.763	5.68
956.055	-85.16
956.346	-4.7
956.636	112.08
956.927	-38.44
957.218	75.75
957.509	5.68
957.8	-108.51
958.09	-66.99
958.381	-2.11
958.671	49.8
958.962	70.56
959.252	-4.7
959.542	65.37
959.833	-4.7
960.123	-20.28
960.413	67.96
960.703	-41.04
960.993	-33.25
961.283	-12.49
961.573	-35.85
961.863	5.68
962.153	-2.11
962.442	-82.56
962.732	114.68
963.022	16.06
963.311	29.03
963.601	-46.23
963.89	-15.08
964.18	-15.08
964.469	16.06
964.758	-15.08
965.047	52.39
965.337	-20.28
965.626	-66.99
965.915	-95.54
966.204	-20.28
966.493	75.75
966.781	42.01
967.07	86.13
967.359	-46.23
967.648	0.49
967.936	-33.25
968.225	-9.89
968.513	-7.3
968.802	-79.97
969.09	39.42
969.378	-77.37
969.666	52.39
969.955	127.65
970.243	13.46
970.531	57.58
970.819	-2.11
971.107	-28.06
971.395	39.42
971.683	49.8
971.97	-2.11
972.258	-82.56
972.546	96.51
972.833	-72.18
973.121	31.63
973.408	-25.47
973.696	42.01
973.983	91.32
974.27	49.8
974.558	18.65
974.845	-35.85
975.132	-2.11
975.419	57.58
975.706	-9.89
975.993	-77.37
976.28	-33.25
976.566	-4.7
976.853	34.22
977.14	18.65
977.426	13.46
977.713	62.77
978	13.46
978.286	-2.11
978.572	26.44
978.859	112.08
979.145	21.25
979.431	8.27
979.717	-15.08
980.003	-79.97
980.289	-30.66
980.575	-46.23
980.861	47.2
981.147	-15.08
981.433	54.99
981.719	52.39
982.004	-79.97
982.29	-35.85
982.575	-25.47
982.861	23.84
983.146	0.49
983.432	54.99
983.717	67.96
984.002	-35.85
984.287	-43.63
984.573	8.27
984.858	49.8
985.143	-2.11
985.428	62.77
985.712	47.2
985.997	21.25
986.282	73.15
986.567	31.63
986.851	8.27
987.136	-15.08
987.42	-38.44
987.705	109.49
987.989	-59.2
988.274	-9.89
988.558	-25.47
988.842	-79.97
989.126	75.75
989.41	18.65
989.694	-30.66
989.978	-20.28
990.262	-2.11
990.546	-33.25
990.83	88.72
991.114	-9.89
991.397	75.75
991.681	62.77
991.965	-9.89
992.248	-41.04
992.531	91.32
992.815	-54.01
993.098	-41.04
993.381	-28.06
993.665	-4.7
993.948	-15.08
994.231	-72.18
994.514	-15.08
994.797	-64.39
995.08	-90.35
995.362	52.39
995.645	62.77
995.928	-25.47
996.211	-9.89
996.493	-17.68
996.776	109.49
997.058	-22.87
997.34	5.68
997.623	18.65
997.905	-79.97
998.187	65.37
998.469	0.49
998.752	-30.66
999.034	47.2
999.316	-28.06
999.597	-22.87
999.879	0.49
1000.161	34.22
1000.443	26.44
1000.725	-12.49
1001.006	67.96
1001.288	62.77
1001.569	34.22
1001.851	62.77
1002.132	26.44
1002.413	-22.87
1002.694	21.25
1002.976	-12.49
1003.257	88.72
1003.538	-15.08
1003.819	10.87
1004.1	-22.87
1004.381	-15.08
1004.661	-66.99
1004.942	78.34
1005.223	16.06
1005.504	114.68
1005.784	36.82
1006.065	-17.68
1006.345	65.37
1006.625	42.01
1006.906	62.77
1007.186	125.06
1007.466	13.46
1007.746	-2.11
1008.026	-33.25
1008.306	-38.44
1008.586	-43.63
1008.866	143.22
1009.146	26.44
1009.426	-46.23
1009.706	91.32
1009.985	-113.7
1010.265	-4.7
1010.544	-7.3
1010.824	49.8
1011.103	36.82
1011.383	-17.68
1011.662	18.65
1011.941	-105.92
1012.22	114.68
1012.499	47.2
1012.778	-54.01
1013.057	78.34
1013.336	-4.7
1013.615	36.82
1013.894	78.34
1014.173	-35.85
1014.451	54.99
1014.73	44.61
1015.009	-59.2
1015.287	-9.89
1015.566	-41.04
1015.844	-38.44
1016.122	-28.06
1016.4	3.08
1016.679	49.8
1016.957	-35.85
1017.235	-22.87
1017.513	23.84
1017.791	23.84
1018.069	99.11
1018.346	-9.89
1018.624	42.01
1018.902	-7.3
1019.179	8.27
1019.457	-22.87
1019.735	10.87
1020.012	132.84
1020.289	8.27
1020.567	8.27
1020.844	8.27
