Data from Subt2_19-02-53-896.txt Node
Date: Wed Feb 22 19:02:53 CST 2023
User: Optics Lab
Spectrometer: FLMS14302
Trigger mode: 0
Integration Time (sec): 1.000000E-1
Scans to average: 1
Electric dark correction enabled: true
Nonlinearity correction enabled: false
Boxcar width: 0
XAxis mode: Wavelengths
Number of Pixels in Spectrum: 2048
>>>>>Begin Spectral Data<<<<<
338.578	-28.87
338.961	-28.87
339.343	-28.87
339.725	17.84
340.108	67.15
340.49	-15.9
340.872	46.39
341.254	-31.47
341.636	30.82
342.018	-70.4
342.4	-101.54
342.782	12.65
343.164	15.25
343.546	-10.71
343.928	41.2
344.309	-47.04
344.691	-8.11
345.073	33.41
345.455	93.1
345.836	-0.32
346.218	12.65
346.599	-106.73
346.981	10.06
347.362	46.39
347.744	-10.71
348.125	72.34
348.506	36.01
348.888	46.39
349.269	7.46
349.65	15.25
350.031	15.25
350.413	-60.01
350.794	28.22
351.175	-23.68
351.556	-8.11
351.937	80.13
352.318	-65.21
352.698	-83.37
353.079	-23.68
353.46	-54.82
353.841	-36.66
354.222	17.84
354.602	-114.51
354.983	17.84
355.363	-21.09
355.744	7.46
356.124	59.37
356.505	-10.71
356.885	-41.85
357.266	-57.42
357.646	85.32
358.026	30.82
358.407	51.58
358.787	72.34
359.167	59.37
359.547	-34.06
359.927	-10.71
360.307	-31.47
360.687	10.06
361.067	43.79
361.447	67.15
361.827	4.87
362.207	4.87
362.587	-10.71
362.966	38.6
363.346	-13.3
363.726	-49.63
364.105	-13.3
364.485	-0.32
364.865	-41.85
365.244	12.65
365.624	-54.82
366.003	59.37
366.382	-72.99
366.762	108.68
367.141	48.99
367.52	38.6
367.899	59.37
368.279	30.82
368.658	38.6
369.037	-2.92
369.416	33.41
369.795	56.77
370.174	87.91
370.553	-8.11
370.932	4.87
371.311	-2.92
371.689	80.13
372.068	-60.01
372.447	46.39
372.825	28.22
373.204	-8.11
373.583	-0.32
373.961	38.6
374.34	-13.3
374.718	-106.73
375.097	7.46
375.475	61.96
375.853	23.03
376.232	69.75
376.61	95.7
376.988	10.06
377.366	10.06
377.744	-34.06
378.122	28.22
378.5	-13.3
378.878	15.25
379.256	10.06
379.634	-23.68
380.012	10.06
380.39	-101.54
380.768	-54.82
381.145	-26.28
381.523	-21.09
381.901	67.15
382.278	-10.71
382.656	20.44
383.033	43.79
383.411	77.53
383.788	-75.59
384.166	-0.32
384.543	98.29
384.921	-18.49
385.298	116.46
385.675	17.84
386.052	10.06
386.429	38.6
386.806	38.6
387.184	28.22
387.561	111.27
387.938	-5.51
388.314	87.91
388.691	-39.25
389.068	82.72
389.445	-5.51
389.822	-18.49
390.198	54.18
390.575	-36.66
390.952	-62.61
391.328	38.6
391.705	46.39
392.081	95.7
392.458	-34.06
392.834	-10.71
393.211	82.72
393.587	28.22
393.963	-117.11
394.34	17.84
394.716	15.25
395.092	10.06
395.468	-39.25
395.844	-52.23
396.22	38.6
396.596	-39.25
396.972	-21.09
397.348	15.25
397.724	-41.85
398.1	-62.61
398.476	2.27
398.851	61.96
399.227	-75.59
399.603	-5.51
399.978	41.2
400.354	-34.06
400.729	15.25
401.105	25.63
401.48	48.99
401.856	20.44
402.231	28.22
402.606	-18.49
402.982	-18.49
403.357	7.46
403.732	-36.66
404.107	119.06
404.482	100.89
404.857	36.01
405.232	-10.71
405.607	48.99
405.982	23.03
406.357	10.06
406.732	-18.49
407.107	-72.99
407.482	-85.97
407.856	-44.44
408.231	30.82
408.606	-47.04
408.98	-10.71
409.355	4.87
409.729	-31.47
410.104	-26.28
410.478	69.75
410.852	-62.61
411.227	23.03
411.601	-0.32
411.975	-2.92
412.35	17.84
412.724	-21.09
413.098	30.82
413.472	119.06
413.846	-67.8
414.22	43.79
414.594	41.2
414.968	-5.51
415.342	-44.44
415.715	43.79
416.089	20.44
416.463	-31.47
416.837	28.22
417.21	-28.87
417.584	-26.28
417.957	36.01
418.331	25.63
418.704	7.46
419.078	72.34
419.451	-8.11
419.824	28.22
420.198	-28.87
420.571	-26.28
420.944	41.2
421.317	-60.01
421.69	69.75
422.064	36.01
422.437	28.22
422.81	-88.56
423.182	10.06
423.555	67.15
423.928	-28.87
424.301	-5.51
424.674	-54.82
425.047	15.25
425.419	28.22
425.792	4.87
426.164	-13.3
426.537	-54.82
426.91	-28.87
427.282	98.29
427.654	-44.44
428.027	4.87
428.399	17.84
428.771	7.46
429.144	90.51
429.516	51.58
429.888	-70.4
430.26	-78.18
430.632	-114.51
431.004	38.6
431.376	36.01
431.748	126.84
432.12	-8.11
432.492	-26.28
432.864	-8.11
433.236	-75.59
433.607	-96.35
433.979	2.27
434.351	-18.49
434.722	4.87
435.094	90.51
435.465	23.03
435.837	212.49
436.208	272.18
436.58	365.6
436.951	145.01
437.322	69.75
437.693	69.75
438.065	-36.66
438.436	28.22
438.807	20.44
439.178	20.44
439.549	-124.9
439.92	90.51
440.291	-0.32
440.662	61.96
441.033	150.2
441.403	72.34
441.774	33.41
442.145	61.96
442.516	113.87
442.886	69.75
443.257	145.01
443.627	51.58
443.998	113.87
444.368	-0.32
444.739	145.01
445.109	25.63
445.479	124.25
445.85	77.53
446.22	46.39
446.59	51.58
446.96	126.84
447.33	119.06
447.7	126.84
448.07	116.46
448.44	134.63
448.81	124.25
449.18	121.65
449.55	20.44
449.92	23.03
450.29	67.15
450.659	103.49
451.029	207.29
451.399	207.29
451.768	248.82
452.138	152.79
452.507	103.49
452.877	103.49
453.246	202.1
453.615	134.63
453.985	212.49
454.354	186.53
454.723	207.29
455.092	183.94
455.462	165.77
455.831	178.75
456.2	222.87
456.569	222.87
456.938	256.6
457.307	46.39
457.675	248.82
458.044	183.94
458.413	277.37
458.782	217.68
459.15	142.41
459.519	191.72
459.888	259.2
460.256	126.84
460.625	207.29
460.993	134.63
461.362	132.03
461.73	113.87
462.098	129.44
462.467	150.2
462.835	155.39
463.203	209.89
463.571	103.49
463.939	90.51
464.307	48.99
464.675	170.96
465.043	155.39
465.411	186.53
465.779	202.1
466.147	134.63
466.515	147.6
466.883	176.15
467.25	290.34
467.618	147.6
467.986	196.91
468.353	113.87
468.721	119.06
469.088	103.49
469.456	87.91
469.823	196.91
470.19	170.96
470.558	147.6
470.925	93.1
471.292	69.75
471.659	170.96
472.027	157.99
472.394	134.63
472.761	181.34
473.128	137.22
473.495	126.84
473.862	186.53
474.228	113.87
474.595	173.56
474.962	191.72
475.329	124.25
475.695	72.34
476.062	51.58
476.429	145.01
476.795	137.22
477.162	113.87
477.528	108.68
477.895	46.39
478.261	36.01
478.627	183.94
478.994	134.63
479.36	7.46
479.726	121.65
480.092	152.79
480.458	33.41
480.824	124.25
481.19	41.2
481.556	194.32
481.922	108.68
482.288	69.75
482.654	124.25
483.02	77.53
483.385	186.53
483.751	152.79
484.117	170.96
484.482	103.49
484.848	137.22
485.213	124.25
485.579	191.72
485.944	59.37
486.31	139.82
486.675	111.27
487.04	212.49
487.406	132.03
487.771	228.06
488.136	194.32
488.501	191.72
488.866	183.94
489.231	235.84
489.596	160.58
489.961	212.49
490.326	183.94
490.691	54.18
491.056	145.01
491.42	116.46
491.785	137.22
492.15	196.91
492.514	228.06
492.879	181.34
493.243	129.44
493.608	181.34
493.972	25.63
494.337	150.2
494.701	23.03
495.065	137.22
495.43	33.41
495.794	38.6
496.158	106.08
496.522	199.51
496.886	38.6
497.25	82.72
497.614	61.96
497.978	204.7
498.342	113.87
498.706	111.27
499.07	129.44
499.433	145.01
499.797	113.87
500.161	207.29
500.524	95.7
500.888	121.65
501.251	129.44
501.615	202.1
501.978	124.25
502.342	51.58
502.705	147.6
503.068	173.56
503.432	121.65
503.795	129.44
504.158	217.68
504.521	134.63
504.884	150.2
505.247	137.22
505.61	106.08
505.973	222.87
506.336	176.15
506.699	173.56
507.062	64.56
507.424	134.63
507.787	100.89
508.15	56.77
508.512	142.41
508.875	111.27
509.238	170.96
509.6	116.46
509.962	100.89
510.325	98.29
510.687	168.37
511.049	38.6
511.412	152.79
511.774	28.22
512.136	173.56
512.498	173.56
512.86	155.39
513.222	116.46
513.584	85.32
513.946	51.58
514.308	85.32
514.67	139.82
515.032	168.37
515.393	176.15
515.755	259.2
516.117	116.46
516.478	209.89
516.84	155.39
517.201	176.15
517.563	233.25
517.924	165.77
518.286	124.25
518.647	145.01
519.008	108.68
519.37	106.08
519.731	134.63
520.092	-21.09
520.453	155.39
520.814	126.84
521.175	150.2
521.536	191.72
521.897	259.2
522.258	155.39
522.619	183.94
522.979	137.22
523.34	246.22
523.701	119.06
524.061	228.06
524.422	163.18
524.783	238.44
525.143	157.99
525.504	111.27
525.864	155.39
526.224	113.87
526.585	108.68
526.945	170.96
527.305	59.37
527.665	165.77
528.025	202.1
528.385	147.6
528.746	163.18
529.106	191.72
529.465	254.01
529.825	298.13
530.185	36.01
530.545	116.46
530.905	111.27
531.264	298.13
531.624	178.75
531.984	209.89
532.343	98.29
532.703	108.68
533.062	147.6
533.422	243.63
533.781	176.15
534.141	183.94
534.5	43.79
534.859	264.39
535.218	116.46
535.577	160.58
535.937	238.44
536.296	145.01
536.655	157.99
537.014	228.06
537.373	183.94
537.731	217.68
538.09	196.91
538.449	225.46
538.808	316.29
539.166	189.13
539.525	207.29
539.884	186.53
540.242	204.7
540.601	194.32
540.959	279.96
541.318	311.1
541.676	337.06
542.034	404.53
542.393	604.37
542.751	586.2
543.109	674.44
543.467	625.13
543.825	503.15
544.183	599.18
544.541	656.27
544.899	715.96
545.257	573.22
545.615	531.7
545.973	664.06
546.331	653.68
546.688	617.34
547.046	459.03
547.404	360.41
547.761	347.44
548.119	145.01
548.476	401.94
548.834	311.1
549.191	443.46
549.548	251.41
549.906	279.96
550.263	261.79
550.62	228.06
550.977	269.58
551.334	279.96
551.691	238.44
552.048	272.18
552.405	222.87
552.762	264.39
553.119	202.1
553.476	212.49
553.833	238.44
554.189	178.75
554.546	126.84
554.903	215.08
555.259	204.7
555.616	165.77
555.972	132.03
556.329	207.29
556.685	108.68
557.042	168.37
557.398	181.34
557.754	82.72
558.11	139.82
558.467	111.27
558.823	93.1
559.179	168.37
559.535	20.44
559.891	126.84
560.247	139.82
560.603	129.44
560.958	152.79
561.314	134.63
561.67	108.68
562.026	152.79
562.381	168.37
562.737	100.89
563.092	61.96
563.448	132.03
563.803	145.01
564.159	142.41
564.514	87.91
564.869	93.1
565.225	170.96
565.58	46.39
565.935	163.18
566.29	189.13
566.645	134.63
567	142.41
567.355	168.37
567.71	111.27
568.065	85.32
568.42	-5.51
568.775	150.2
569.13	129.44
569.484	72.34
569.839	25.63
570.193	64.56
570.548	54.18
570.903	74.94
571.257	77.53
571.611	100.89
571.966	126.84
572.32	116.46
572.674	145.01
573.029	106.08
573.383	51.58
573.737	12.65
574.091	69.75
574.445	77.53
574.799	119.06
575.153	98.29
575.507	95.7
575.861	155.39
576.215	95.7
576.568	106.08
576.922	85.32
577.276	25.63
577.629	93.1
577.983	74.94
578.336	43.79
578.69	23.03
579.043	163.18
579.397	191.72
579.75	77.53
580.103	38.6
580.456	189.13
580.81	119.06
581.163	48.99
581.516	100.89
581.869	134.63
582.222	160.58
582.575	126.84
582.928	38.6
583.281	111.27
583.633	56.77
583.986	251.41
584.339	67.15
584.691	17.84
585.044	12.65
585.397	111.27
585.749	150.2
586.102	74.94
586.454	100.89
586.806	103.49
587.159	28.22
587.511	12.65
587.863	10.06
588.215	28.22
588.567	10.06
588.92	-5.51
589.272	-5.51
589.624	56.77
589.975	-44.44
590.327	-98.94
590.679	-111.92
591.031	-85.97
591.383	17.84
591.734	15.25
592.086	38.6
592.438	-28.87
592.789	-62.61
593.141	-220.92
593.492	-189.78
593.844	-239.09
594.195	-166.42
594.546	-192.37
594.898	-176.8
595.249	-36.66
595.6	-21.09
595.951	-57.42
596.302	-60.01
596.653	-161.23
597.004	-80.78
597.355	-98.94
597.706	-23.68
598.057	-176.8
598.408	-54.82
598.758	-135.28
599.109	-246.87
599.46	-283.21
599.81	-363.66
600.161	-316.94
600.511	-420.75
600.862	-322.13
601.212	-239.09
601.562	-239.09
601.913	-189.78
602.263	-122.3
602.613	-176.8
602.963	-47.04
603.313	-192.37
603.663	-161.23
604.013	-106.73
604.363	-109.32
604.713	-111.92
605.063	-179.4
605.413	-179.4
605.763	-246.87
606.112	-143.06
606.462	-283.21
606.812	-236.49
607.161	-342.9
607.511	-363.66
607.86	-438.92
608.21	-599.82
608.559	-612.8
608.908	-877.52
609.258	-1209.71
609.607	-1352.44
609.956	-2203.68
610.305	-3145.76
610.654	-5312.78
611.003	-9361.36
611.352	-14476.57
611.701	-17728.41
612.05	-17035.48
612.399	-14712.74
612.748	-11720.43
613.097	-9361.36
613.445	-7583.62
613.794	-6239.28
614.143	-5725.42
614.491	-5315.38
614.84	-4928.69
615.188	-4570.54
615.537	-4178.66
615.885	-3568.78
616.233	-3062.71
616.581	-2535.87
616.93	-2141.4
617.278	-1861.11
617.626	-1643.11
617.974	-1531.52
618.322	-1375.8
618.67	-1427.71
619.018	-1386.18
619.366	-1593.8
619.714	-1508.16
620.061	-1549.68
620.409	-1637.92
620.757	-1746.92
621.104	-1788.44
621.452	-1775.47
621.799	-1606.78
622.147	-1687.23
622.494	-1528.92
622.842	-1601.59
623.189	-1500.37
623.536	-1432.9
623.884	-1445.87
624.231	-1336.87
624.578	-1417.33
624.925	-1352.44
625.272	-1412.13
625.619	-1186.35
625.966	-1388.78
626.313	-1201.92
626.66	-1069.56
627.007	-1225.28
627.353	-1056.59
627.7	-1118.87
628.047	-1160.4
628.393	-1147.42
628.74	-1090.33
629.086	-1165.59
629.433	-1085.13
629.779	-1259.02
630.125	-1502.97
630.472	-1702.8
630.818	-2149.18
631.164	-2753.87
631.51	-3036.76
631.857	-2992.64
632.203	-2341.23
632.549	-1749.52
632.895	-1378.4
633.24	-890.49
633.586	-711.42
633.932	-454.49
634.278	-361.06
634.624	-335.11
634.969	-259.85
635.315	-169.02
635.66	-252.06
636.006	-246.87
636.351	-194.97
636.697	-223.52
637.042	-124.9
637.388	-179.4
637.733	-78.18
638.078	-15.9
638.423	625.13
638.768	1307.68
639.113	1364.77
639.458	1455.61
639.803	1715.13
640.148	1245.39
640.493	814.58
640.838	568.03
641.183	228.06
641.527	103.49
641.872	-5.51
642.217	-101.54
642.561	-132.68
642.906	-265.04
643.25	-197.56
643.595	-205.35
643.939	-135.28
644.284	-278.02
644.628	-23.68
644.972	-228.71
645.316	-259.85
645.66	-192.37
646.004	-228.71
646.348	-223.52
646.692	-239.09
647.036	-197.56
647.38	-179.4
647.724	-316.94
648.068	-200.16
648.412	-233.9
648.755	-218.32
649.099	-233.9
649.443	-241.68
649.786	-324.73
650.13	-412.97
650.473	-706.23
650.816	-942.4
651.16	-950.18
651.503	-919.04
651.846	-745.16
652.189	-540.13
652.533	-457.09
652.876	-444.11
653.219	-516.78
653.562	-384.42
653.905	-399.99
654.247	-441.52
654.59	-290.99
654.933	-293.59
655.276	-223.52
655.619	-189.78
655.961	-132.68
656.304	-161.23
656.646	-132.68
656.989	-143.06
657.331	-39.25
657.674	-231.3
658.016	-226.11
658.358	-270.23
658.701	-246.87
659.043	-171.61
659.385	-176.8
659.727	-140.47
660.069	-171.61
660.411	-145.66
660.753	-85.97
661.095	-52.23
661.437	-28.87
661.778	-215.73
662.12	-270.23
662.462	-335.11
662.804	-571.28
663.145	-547.92
663.487	-508.99
663.828	-405.18
664.17	-410.37
664.511	-332.52
664.852	-257.25
665.194	-311.75
665.535	-181.99
665.876	-148.25
666.217	-114.51
666.558	-158.63
666.899	-249.47
667.24	-179.4
667.581	-280.61
667.922	-176.8
668.263	-163.82
668.604	-244.28
668.944	-246.87
669.285	-296.18
669.626	-228.71
669.966	-202.75
670.307	-257.25
670.647	-137.87
670.988	-184.59
671.328	-135.28
671.669	-200.16
672.009	-301.37
672.349	-153.44
672.689	-15.9
673.029	-109.32
673.369	-67.8
673.71	-259.85
674.049	-127.49
674.389	-267.63
674.729	-174.21
675.069	-80.78
675.409	-52.23
675.749	-98.94
676.088	-67.8
676.428	-101.54
676.768	-137.87
677.107	-254.66
677.447	-148.25
677.786	-54.82
678.125	-8.11
678.465	-200.16
678.804	-80.78
679.143	-181.99
679.482	-127.49
679.821	-174.21
680.161	-189.78
680.5	-140.47
680.839	-117.11
681.177	-275.42
681.516	-137.87
681.855	-169.02
682.194	-163.82
682.533	-140.47
682.871	-189.78
683.21	-148.25
683.549	-106.73
683.887	-158.63
684.225	-80.78
684.564	-41.85
684.902	-98.94
685.241	-83.37
685.579	-75.59
685.917	-67.8
686.255	-88.56
686.593	-194.97
686.931	-265.04
687.269	-389.61
687.607	-449.3
687.945	-516.78
688.283	-410.37
688.621	-594.63
688.959	-433.73
689.296	-306.56
689.634	-278.02
689.972	-194.97
690.309	-109.32
690.647	-88.56
690.984	-184.59
691.322	-88.56
691.659	-41.85
691.996	-54.82
692.333	-101.54
692.671	-132.68
693.008	-158.63
693.345	-228.71
693.682	-306.56
694.019	-394.8
694.356	-311.75
694.693	-353.28
695.03	-332.52
695.366	-236.49
695.703	-176.8
696.04	-41.85
696.376	-192.37
696.713	-166.42
697.05	-21.09
697.386	-52.23
697.722	20.44
698.059	-23.68
698.395	77.53
698.731	-41.85
699.068	36.01
699.404	-5.51
699.74	-39.25
700.076	-54.82
700.412	-114.51
700.748	-34.06
701.084	-65.21
701.42	-28.87
701.756	10.06
702.091	-78.18
702.427	-62.61
702.763	-143.06
703.098	-62.61
703.434	-41.85
703.769	-111.92
704.105	-72.99
704.44	-156.04
704.776	-109.32
705.111	-218.32
705.446	-278.02
705.781	-410.37
706.117	-467.47
706.452	-636.16
706.787	-789.28
707.122	-1181.16
707.457	-1175.97
707.792	-1303.13
708.126	-1157.8
708.461	-1033.23
708.796	-1201.92
709.131	-1461.44
709.465	-1497.78
709.8	-1513.35
710.134	-1259.02
710.469	-1053.99
710.803	-726.99
711.138	-597.23
711.472	-529.75
711.806	-571.28
712.14	-734.78
712.475	-1079.94
712.809	-1310.92
713.143	-1131.85
713.477	-996.9
713.811	-711.42
714.145	-628.37
714.479	-423.35
714.812	-265.04
715.146	-161.23
715.48	-85.97
715.814	-96.35
716.147	-96.35
716.481	-65.21
716.814	-54.82
717.148	-0.32
717.481	20.44
717.814	-13.3
718.148	-96.35
718.481	-44.44
718.814	-47.04
719.147	41.2
719.48	-49.63
719.813	-0.32
720.146	-85.97
720.479	-49.63
720.812	-0.32
721.145	-91.16
721.478	15.25
721.81	-117.11
722.143	-52.23
722.476	41.2
722.808	36.01
723.141	-75.59
723.473	-65.21
723.806	-5.51
724.138	77.53
724.47	-54.82
724.803	2.27
725.135	41.2
725.467	-2.92
725.799	-60.01
726.131	-23.68
726.463	-153.44
726.795	51.58
727.127	87.91
727.459	33.41
727.791	-15.9
728.122	20.44
728.454	46.39
728.786	-2.92
729.117	-13.3
729.449	-65.21
729.78	-26.28
730.112	-60.01
730.443	-91.16
730.774	-49.63
731.106	-93.75
731.437	80.13
731.768	-88.56
732.099	-8.11
732.43	-5.51
732.761	-36.66
733.092	-31.47
733.423	-13.3
733.754	30.82
734.085	-44.44
734.416	43.79
734.746	15.25
735.077	-5.51
735.407	4.87
735.738	28.22
736.068	48.99
736.399	-60.01
736.729	-49.63
737.06	90.51
737.39	25.63
737.72	-15.9
738.05	-60.01
738.38	-65.21
738.71	25.63
739.041	-28.87
739.37	-2.92
739.7	-85.97
740.03	30.82
740.36	-28.87
740.69	17.84
741.02	-26.28
741.349	38.6
741.679	-15.9
742.008	25.63
742.338	-39.25
742.667	-39.25
742.997	-117.11
743.326	-28.87
743.655	12.65
743.984	56.77
744.314	-104.13
744.643	17.84
744.972	-23.68
745.301	-98.94
745.63	-60.01
745.959	-0.32
746.288	-104.13
746.616	-0.32
746.945	-18.49
747.274	-28.87
747.603	-21.09
747.931	-62.61
748.26	-5.51
748.588	36.01
748.917	33.41
749.245	-52.23
749.573	36.01
749.902	7.46
750.23	-8.11
750.558	4.87
750.886	-41.85
751.214	64.56
751.542	74.94
751.87	-10.71
752.198	-8.11
752.526	-47.04
752.854	-67.8
753.182	-13.3
753.509	-47.04
753.837	-18.49
754.165	23.03
754.492	-39.25
754.82	41.2
755.147	23.03
755.474	-13.3
755.802	-119.71
756.129	43.79
756.456	-5.51
756.783	-52.23
757.111	-67.8
757.438	-28.87
757.765	-41.85
758.092	17.84
758.418	51.58
758.745	-174.21
759.072	-52.23
759.399	-119.71
759.726	-272.82
760.052	-358.47
760.379	-555.71
760.705	-550.52
761.032	-449.3
761.358	-249.47
761.685	-220.92
762.011	-148.25
762.337	-135.28
762.663	-78.18
762.99	-36.66
763.316	-21.09
763.642	23.03
763.968	15.25
764.294	-54.82
764.62	-96.35
764.946	-31.47
765.271	54.18
765.597	64.56
765.923	-117.11
766.248	74.94
766.574	46.39
766.9	-0.32
767.225	25.63
767.55	20.44
767.876	17.84
768.201	-54.82
768.526	56.77
768.852	121.65
769.177	-78.18
769.502	-145.66
769.827	-80.78
770.152	-18.49
770.477	-83.37
770.802	-23.68
771.127	10.06
771.451	38.6
771.776	30.82
772.101	56.77
772.425	-98.94
772.75	46.39
773.075	12.65
773.399	36.01
773.723	23.03
774.048	-70.4
774.372	-13.3
774.696	-88.56
775.02	-49.63
775.345	-70.4
775.669	36.01
775.993	-10.71
776.317	7.46
776.641	-47.04
776.965	-36.66
777.288	85.32
777.612	-72.99
777.936	46.39
778.26	-44.44
778.583	17.84
778.907	33.41
779.23	25.63
779.554	-28.87
779.877	-36.66
780.2	38.6
780.524	-72.99
780.847	69.75
781.17	41.2
781.493	-13.3
781.816	-13.3
782.139	10.06
782.462	-31.47
782.785	-93.75
783.108	-18.49
783.431	-62.61
783.754	-10.71
784.076	-5.51
784.399	-26.28
784.722	-57.42
785.044	61.96
785.367	36.01
785.689	-60.01
786.011	-54.82
786.334	-169.02
786.656	-109.32
786.978	-8.11
787.3	-137.87
787.622	38.6
787.944	7.46
788.266	80.13
788.588	-28.87
788.91	-41.85
789.232	-21.09
789.554	12.65
789.876	-2.92
790.197	64.56
790.519	-10.71
790.841	-31.47
791.162	-13.3
791.483	46.39
791.805	-98.94
792.126	67.15
792.448	-0.32
792.769	-91.16
793.09	17.84
793.411	-18.49
793.732	7.46
794.053	-21.09
794.374	108.68
794.695	64.56
795.016	-41.85
795.337	87.91
795.658	25.63
795.978	48.99
796.299	-75.59
796.619	-31.47
796.94	-13.3
797.261	-70.4
797.581	85.32
797.901	48.99
798.222	-57.42
798.542	-47.04
798.862	46.39
799.182	-49.63
799.502	4.87
799.822	-18.49
800.142	-18.49
800.462	64.56
800.782	-31.47
801.102	23.03
801.422	54.18
801.742	46.39
802.061	-72.99
802.381	-62.61
802.701	-106.73
803.02	12.65
803.339	-75.59
803.659	77.53
803.978	25.63
804.298	4.87
804.617	64.56
804.936	-21.09
805.255	-54.82
805.574	2.27
805.893	-23.68
806.212	-34.06
806.531	-114.51
806.85	-70.4
807.169	-10.71
807.487	-39.25
807.806	7.46
808.125	36.01
808.443	4.87
808.762	-67.8
809.08	12.65
809.399	33.41
809.717	12.65
810.035	33.41
810.354	-44.44
810.672	-122.3
810.99	-350.68
811.308	-620.59
811.626	-729.59
811.944	-701.04
812.262	-589.44
812.58	-451.9
812.898	-293.59
813.216	-249.47
813.533	-60.01
813.851	-57.42
814.169	-34.06
814.486	33.41
814.804	-15.9
815.121	46.39
815.438	-28.87
815.756	-44.44
816.073	-111.92
816.39	-70.4
816.707	-8.11
817.025	-10.71
817.342	25.63
817.659	-93.75
817.976	4.87
818.292	-78.18
818.609	-5.51
818.926	-18.49
819.243	-88.56
819.559	-169.02
819.876	-75.59
820.193	-49.63
820.509	-49.63
820.826	12.65
821.142	17.84
821.458	-15.9
821.775	-0.32
822.091	80.13
822.407	-67.8
822.723	-8.11
823.039	-8.11
823.355	-31.47
823.671	20.44
823.987	43.79
824.303	-75.59
824.619	-91.16
824.935	139.82
825.25	-52.23
825.566	46.39
825.881	33.41
826.197	-83.37
826.512	-143.06
826.828	-36.66
827.143	-39.25
827.458	-0.32
827.774	-93.75
828.089	-26.28
828.404	-101.54
828.719	-70.4
829.034	-47.04
829.349	-83.37
829.664	-60.01
829.979	-171.61
830.294	-306.56
830.608	-252.06
830.923	-202.75
831.238	-106.73
831.552	-23.68
831.867	-18.49
832.181	-137.87
832.496	-54.82
832.81	33.41
833.124	-31.47
833.439	-85.97
833.753	-34.06
834.067	7.46
834.381	48.99
834.695	4.87
835.009	59.37
835.323	80.13
835.637	48.99
835.951	-31.47
836.264	-39.25
836.578	25.63
836.892	20.44
837.205	4.87
837.519	145.01
837.832	-72.99
838.146	-34.06
838.459	-57.42
838.772	-132.68
839.086	41.2
839.399	-47.04
839.712	-0.32
840.025	-28.87
840.338	-41.85
840.651	-10.71
840.964	116.46
841.277	-78.18
841.59	142.41
841.902	77.53
842.215	-10.71
842.528	28.22
842.84	23.03
843.153	41.2
843.465	-2.92
843.778	-41.85
844.09	-28.87
844.403	67.15
844.715	93.1
845.027	7.46
845.339	-67.8
845.651	28.22
845.963	-2.92
846.275	82.72
846.587	2.27
846.899	95.7
847.211	-57.42
847.523	72.34
847.834	-21.09
848.146	25.63
848.457	-8.11
848.769	23.03
849.08	87.91
849.392	-36.66
849.703	-122.3
850.015	-52.23
850.326	-21.09
850.637	-18.49
850.948	-23.68
851.259	-18.49
851.57	51.58
851.881	-21.09
852.192	10.06
852.503	38.6
852.814	-47.04
853.125	25.63
853.435	-31.47
853.746	-5.51
854.056	36.01
854.367	28.22
854.677	-80.78
854.988	-10.71
855.298	7.46
855.609	74.94
855.919	20.44
856.229	-39.25
856.539	56.77
856.849	77.53
857.159	56.77
857.469	15.25
857.779	-18.49
858.089	-8.11
858.399	-60.01
858.708	23.03
859.018	74.94
859.328	59.37
859.637	-78.18
859.947	-47.04
860.256	64.56
860.566	-52.23
860.875	-114.51
861.184	-28.87
861.494	-34.06
861.803	25.63
862.112	51.58
862.421	46.39
862.73	51.58
863.039	15.25
863.348	12.65
863.657	15.25
863.965	-111.92
864.274	-52.23
864.583	7.46
864.891	-8.11
865.2	-39.25
865.509	-10.71
865.817	-10.71
866.125	-62.61
866.434	90.51
866.742	-44.44
867.05	-52.23
867.358	46.39
867.666	67.15
867.975	51.58
868.283	-28.87
868.59	77.53
868.898	23.03
869.206	-13.3
869.514	4.87
869.822	-88.56
870.129	43.79
870.437	-26.28
870.744	7.46
871.052	12.65
871.359	43.79
871.667	-15.9
871.974	85.32
872.281	17.84
872.589	33.41
872.896	132.03
873.203	7.46
873.51	-65.21
873.817	41.2
874.124	-13.3
874.431	-23.68
874.737	113.87
875.044	-18.49
875.351	103.49
875.658	64.56
875.964	-5.51
876.271	20.44
876.577	-34.06
876.884	36.01
877.19	-62.61
877.496	-39.25
877.802	-15.9
878.109	-117.11
878.415	-96.35
878.721	-52.23
879.027	-130.09
879.333	-28.87
879.639	10.06
879.945	-52.23
880.25	-41.85
880.556	38.6
880.862	-57.42
881.167	-36.66
881.473	93.1
881.778	51.58
882.084	12.65
882.389	7.46
882.695	17.84
883	-0.32
883.305	77.53
883.61	30.82
883.915	30.82
884.22	4.87
884.525	93.1
884.83	33.41
885.135	-10.71
885.44	119.06
885.745	-18.49
886.05	10.06
886.354	82.72
886.659	-26.28
886.963	38.6
887.268	-28.87
887.572	-26.28
887.877	-15.9
888.181	-8.11
888.485	-5.51
888.789	-122.3
889.093	33.41
889.398	33.41
889.702	12.65
890.006	12.65
890.309	48.99
890.613	-0.32
890.917	-31.47
891.221	30.82
891.525	-28.87
891.828	36.01
892.132	-98.94
892.435	-88.56
892.739	-0.32
893.042	-36.66
893.345	-65.21
893.649	-132.68
893.952	-85.97
894.255	-104.13
894.558	-70.4
894.861	-83.37
895.164	-83.37
895.467	-44.44
895.77	36.01
896.073	-75.59
896.376	-15.9
896.678	67.15
896.981	-21.09
897.284	-101.54
897.586	2.27
897.889	-91.16
898.191	74.94
898.493	-15.9
898.796	46.39
899.098	-18.49
899.4	-15.9
899.702	61.96
900.004	17.84
900.306	-39.25
900.608	106.08
900.91	33.41
901.212	87.91
901.514	17.84
901.816	-31.47
902.117	-67.8
902.419	-5.51
902.721	-80.78
903.022	38.6
903.323	10.06
903.625	85.32
903.926	23.03
904.227	-8.11
904.529	7.46
904.83	93.1
905.131	54.18
905.432	85.32
905.733	25.63
906.034	-83.37
906.335	15.25
906.636	-41.85
906.936	-49.63
907.237	-18.49
907.538	-15.9
907.838	-18.49
908.139	46.39
908.439	54.18
908.74	-0.32
909.04	59.37
909.34	43.79
909.641	-18.49
909.941	-5.51
910.241	-21.09
910.541	-62.61
910.841	-49.63
911.141	25.63
911.441	85.32
911.741	113.87
912.04	-98.94
912.34	46.39
912.64	2.27
912.939	-91.16
913.239	-47.04
913.538	-122.3
913.838	43.79
914.137	-5.51
914.436	10.06
914.736	-13.3
915.035	-13.3
915.334	-34.06
915.633	-28.87
915.932	46.39
916.231	59.37
916.53	-54.82
916.829	-39.25
917.128	48.99
917.426	43.79
917.725	-15.9
918.024	59.37
918.322	64.56
918.621	41.2
918.919	2.27
919.217	43.79
919.516	59.37
919.814	-114.51
920.112	15.25
920.41	46.39
920.709	-10.71
921.007	12.65
921.305	-62.61
921.602	17.84
921.9	28.22
922.198	-93.75
922.496	-44.44
922.794	67.15
923.091	-41.85
923.389	33.41
923.686	61.96
923.984	-0.32
924.281	-13.3
924.578	-36.66
924.876	-26.28
925.173	-5.51
925.47	-5.51
925.767	20.44
926.064	-106.73
926.361	-54.82
926.658	-8.11
926.955	17.84
927.252	20.44
927.549	-18.49
927.845	-5.51
928.142	74.94
928.438	-31.47
928.735	41.2
929.031	20.44
929.328	59.37
929.624	41.2
929.92	41.2
930.217	67.15
930.513	61.96
930.809	41.2
931.105	77.53
931.401	-47.04
931.697	-28.87
931.993	41.2
932.289	-15.9
932.584	-60.01
932.88	-39.25
933.176	23.03
933.471	160.58
933.767	132.03
934.062	160.58
934.358	12.65
934.653	-49.63
934.948	28.22
935.244	-67.8
935.539	43.79
935.834	-8.11
936.129	-31.47
936.424	-62.61
936.719	7.46
937.014	155.39
937.309	134.63
937.603	-41.85
937.898	77.53
938.193	-13.3
938.487	15.25
938.782	30.82
939.076	25.63
939.371	-44.44
939.665	43.79
939.959	-49.63
940.254	-36.66
940.548	33.41
940.842	-28.87
941.136	61.96
941.43	80.13
941.724	-44.44
942.018	51.58
942.311	51.58
942.605	-47.04
942.899	17.84
943.193	36.01
943.486	-0.32
943.78	-31.47
944.073	-23.68
944.367	-47.04
944.66	-23.68
944.953	119.06
945.246	-47.04
945.54	100.89
945.833	-101.54
946.126	7.46
946.419	85.32
946.712	-39.25
947.005	-0.32
947.297	-5.51
947.59	15.25
947.883	46.39
948.176	30.82
948.468	72.34
948.761	-28.87
949.053	-60.01
949.346	17.84
949.638	-78.18
949.93	15.25
950.222	43.79
950.515	-8.11
950.807	15.25
951.099	-8.11
951.391	33.41
951.683	-31.47
951.975	-15.9
952.266	48.99
952.558	-13.3
952.85	30.82
953.141	93.1
953.433	-23.68
953.725	-8.11
954.016	23.03
954.307	-26.28
954.599	77.53
954.89	-36.66
955.181	-13.3
955.472	-2.92
955.763	-28.87
956.055	-18.49
956.346	7.46
956.636	41.2
956.927	43.79
957.218	51.58
957.509	-57.42
957.8	-31.47
958.09	15.25
958.381	2.27
958.671	-15.9
958.962	-8.11
959.252	36.01
959.542	152.79
959.833	-78.18
960.123	-65.21
960.413	54.18
960.703	43.79
960.993	-23.68
961.283	-13.3
961.573	-18.49
961.863	54.18
962.153	38.6
962.442	72.34
962.732	-5.51
963.022	17.84
963.311	-67.8
963.601	-23.68
963.89	-36.66
964.18	54.18
964.469	-36.66
964.758	-18.49
965.047	15.25
965.337	12.65
965.626	28.22
965.915	-91.16
966.204	-70.4
966.493	74.94
966.781	61.96
967.07	-28.87
967.359	-36.66
967.648	-67.8
967.936	10.06
968.225	72.34
968.513	4.87
968.802	-148.25
969.09	-8.11
969.378	-26.28
969.666	98.29
969.955	90.51
970.243	-18.49
970.531	64.56
970.819	-44.44
971.107	-13.3
971.395	7.46
971.683	-39.25
971.97	61.96
972.258	-106.73
972.546	72.34
972.833	-15.9
973.121	59.37
973.408	-21.09
973.696	85.32
973.983	36.01
974.27	-39.25
974.558	77.53
974.845	-124.9
975.132	-23.68
975.419	48.99
975.706	-10.71
975.993	-70.4
976.28	-72.99
976.566	74.94
976.853	59.37
977.14	-52.23
977.426	-15.9
977.713	-31.47
978	72.34
978.286	-8.11
978.572	36.01
978.859	106.08
979.145	46.39
979.431	46.39
979.717	-0.32
980.003	-54.82
980.289	38.6
980.575	-70.4
980.861	90.51
981.147	15.25
981.433	-15.9
981.719	-18.49
982.004	-31.47
982.29	-26.28
982.575	-18.49
982.861	33.41
983.146	-15.9
983.432	-62.61
983.717	28.22
984.002	-39.25
984.287	-72.99
984.573	7.46
984.858	-57.42
985.143	28.22
985.428	12.65
985.712	-62.61
985.997	-39.25
986.282	38.6
986.567	69.75
986.851	85.32
987.136	10.06
987.42	-8.11
987.705	-13.3
987.989	-156.04
988.274	25.63
988.558	72.34
988.842	-26.28
989.126	7.46
989.41	-62.61
989.694	-23.68
989.978	-26.28
990.262	-137.87
990.546	-10.71
990.83	-10.71
991.114	-34.06
991.397	-18.49
991.681	-31.47
991.965	-15.9
992.248	-41.85
992.531	72.34
992.815	-54.82
993.098	-26.28
993.381	-54.82
993.665	-21.09
993.948	-98.94
994.231	20.44
994.514	12.65
994.797	-34.06
995.08	4.87
995.362	7.46
995.645	72.34
995.928	-75.59
996.211	-18.49
996.493	59.37
996.776	100.89
997.058	15.25
997.34	-21.09
997.623	43.79
997.905	-104.13
998.187	12.65
998.469	-44.44
998.752	20.44
999.034	64.56
999.316	56.77
999.597	-49.63
999.879	-70.4
1000.161	10.06
1000.443	-8.11
1000.725	38.6
1001.006	74.94
1001.288	36.01
1001.569	113.87
1001.851	80.13
1002.132	95.7
1002.413	-0.32
1002.694	100.89
1002.976	-5.51
1003.257	69.75
1003.538	-13.3
1003.819	-10.71
1004.1	-26.28
1004.381	2.27
1004.661	-104.13
1004.942	-52.23
1005.223	72.34
1005.504	54.18
1005.784	33.41
1006.065	-15.9
1006.345	98.29
1006.625	-10.71
1006.906	-5.51
1007.186	80.13
1007.466	12.65
1007.746	-18.49
1008.026	-15.9
1008.306	12.65
1008.586	-10.71
1008.866	87.91
1009.146	-39.25
1009.426	-60.01
1009.706	41.2
1009.985	-26.28
1010.265	-23.68
1010.544	-26.28
1010.824	82.72
1011.103	4.87
1011.383	-18.49
1011.662	80.13
1011.941	-65.21
1012.22	-5.51
1012.499	43.79
1012.778	2.27
1013.057	-31.47
1013.336	17.84
1013.615	-80.78
1013.894	7.46
1014.173	-49.63
1014.451	41.2
1014.73	12.65
1015.009	-93.75
1015.287	82.72
1015.566	-18.49
1015.844	-47.04
1016.122	-44.44
1016.4	25.63
1016.679	15.25
1016.957	-47.04
1017.235	-49.63
1017.513	-44.44
1017.791	48.99
1018.069	2.27
1018.346	-60.01
1018.624	36.01
1018.902	-31.47
1019.179	15.25
1019.457	10.06
1019.735	77.53
1020.012	137.22
1020.289	61.96
1020.567	61.96
1020.844	61.96
