Data from Subt2_19-03-33-011.txt Node
Date: Wed Feb 22 19:03:33 CST 2023
User: Optics Lab
Spectrometer: FLMS14302
Trigger mode: 0
Integration Time (sec): 1.000000E-1
Scans to average: 1
Electric dark correction enabled: true
Nonlinearity correction enabled: false
Boxcar width: 0
XAxis mode: Wavelengths
Number of Pixels in Spectrum: 2048
>>>>>Begin Spectral Data<<<<<
338.578	8.92
338.961	8.92
339.343	8.92
339.725	-22.22
340.108	91.97
340.49	11.52
340.872	3.73
341.254	-40.39
341.636	-1.46
342.018	-22.22
342.4	-6.65
342.782	81.59
343.164	29.68
343.546	27.09
343.928	-4.06
344.309	-37.79
344.691	-53.36
345.073	32.28
345.455	-40.39
345.836	11.52
346.218	8.92
346.599	-32.6
346.981	19.3
347.362	3.73
347.744	-42.98
348.125	21.9
348.506	29.68
348.888	66.02
349.269	27.09
349.65	112.73
350.031	97.16
350.413	104.95
350.794	34.87
351.175	-9.25
351.556	16.71
351.937	40.06
352.318	-6.65
352.698	11.52
353.079	34.87
353.46	-30.01
353.841	-74.13
354.222	29.68
354.602	29.68
354.983	45.25
355.363	40.06
355.744	16.71
356.124	37.47
356.505	-1.46
356.885	78.99
357.266	16.71
357.646	115.33
358.026	68.61
358.407	47.85
358.787	32.28
359.167	-24.82
359.547	-6.65
359.927	94.56
360.307	11.52
360.687	34.87
361.067	-30.01
361.447	6.33
361.827	29.68
362.207	3.73
362.587	-9.25
362.966	76.4
363.346	-87.1
363.726	-4.06
364.105	3.73
364.485	55.64
364.865	-24.82
365.244	-14.44
365.624	-76.72
366.003	-17.03
366.382	6.33
366.762	130.9
367.141	16.71
367.52	37.47
367.899	-37.79
368.279	27.09
368.658	11.52
369.037	-55.96
369.416	-35.2
369.795	1.14
370.174	110.14
370.553	-1.46
370.932	-19.63
371.311	-55.96
371.689	19.3
372.068	-9.25
372.447	84.18
372.825	19.3
373.204	16.71
373.583	3.73
373.961	50.44
374.34	34.87
374.718	-14.44
375.097	99.75
375.475	143.87
375.853	89.37
376.232	71.21
376.61	78.99
376.988	125.71
377.366	66.02
377.744	6.33
378.122	47.85
378.5	-118.25
378.878	29.68
379.256	-24.82
379.634	6.33
380.012	1.14
380.39	-4.06
380.768	-50.77
381.145	-19.63
381.523	73.8
381.901	34.87
382.278	-4.06
382.656	14.11
383.033	-1.46
383.411	91.97
383.788	-35.2
384.166	-24.82
384.543	91.97
384.921	112.73
385.298	53.04
385.675	99.75
386.052	16.71
386.429	84.18
386.806	-11.84
387.184	3.73
387.561	27.09
387.938	-66.34
388.314	40.06
388.691	-35.2
389.068	146.47
389.445	16.71
389.822	-50.77
390.198	50.44
390.575	-40.39
390.952	-22.22
391.328	-40.39
391.705	40.06
392.081	8.92
392.458	-6.65
392.834	58.23
393.211	149.06
393.587	-19.63
393.963	-68.94
394.34	-27.41
394.716	-35.2
395.092	45.25
395.468	8.92
395.844	1.14
396.22	97.16
396.596	-19.63
396.972	6.33
397.348	53.04
397.724	19.3
398.1	-19.63
398.476	97.16
398.851	-19.63
399.227	-53.36
399.603	45.25
399.978	50.44
400.354	94.56
400.729	40.06
401.105	8.92
401.48	-24.82
401.856	24.49
402.231	55.64
402.606	-87.1
402.982	11.52
403.357	6.33
403.732	11.52
404.107	53.04
404.482	37.47
404.857	14.11
405.232	73.8
405.607	55.64
405.982	14.11
406.357	-9.25
406.732	3.73
407.107	-32.6
407.482	-37.79
407.856	-55.96
408.231	-53.36
408.606	50.44
408.98	37.47
409.355	94.56
409.729	32.28
410.104	47.85
410.478	27.09
410.852	27.09
411.227	34.87
411.601	76.4
411.975	-9.25
412.35	99.75
412.724	-4.06
413.098	29.68
413.472	58.23
413.846	-58.56
414.22	63.42
414.594	-55.96
414.968	47.85
415.342	-66.34
415.715	24.49
416.089	-6.65
416.463	-45.58
416.837	37.47
417.21	-66.34
417.584	-11.84
417.957	55.64
418.331	37.47
418.704	53.04
419.078	73.8
419.451	102.35
419.824	29.68
420.198	73.8
420.571	-32.6
420.944	76.4
421.317	-27.41
421.69	-45.58
422.064	-6.65
422.437	-1.46
422.81	-107.86
423.182	-6.65
423.555	125.71
423.928	45.25
424.301	-17.03
424.674	37.47
425.047	29.68
425.419	19.3
425.792	8.92
426.164	50.44
426.537	-97.48
426.91	-79.32
427.282	76.4
427.654	-1.46
428.027	-17.03
428.399	16.71
428.771	37.47
429.144	68.61
429.516	34.87
429.888	-1.46
430.26	-9.25
430.632	-45.58
431.004	110.14
431.376	89.37
431.748	76.4
432.12	-84.51
432.492	78.99
432.864	32.28
433.236	6.33
433.607	-4.06
433.979	-6.65
434.351	68.61
434.722	76.4
435.094	63.42
435.465	21.9
435.837	200.97
436.208	302.18
436.58	273.64
436.951	133.49
437.322	91.97
437.693	76.4
438.065	-42.98
438.436	53.04
438.807	19.3
439.178	97.16
439.549	-40.39
439.92	71.21
440.291	55.64
440.662	16.71
441.033	117.92
441.403	66.02
441.774	-14.44
442.145	76.4
442.516	-24.82
442.886	91.97
443.257	91.97
443.627	1.14
443.998	120.52
444.368	-55.96
444.739	60.83
445.109	151.66
445.479	81.59
445.85	16.71
446.22	16.71
446.59	66.02
446.96	141.28
447.33	16.71
447.7	172.42
448.07	89.37
448.44	99.75
448.81	84.18
449.18	63.42
449.55	58.23
449.92	37.47
450.29	32.28
450.659	8.92
451.029	86.78
451.399	141.28
451.768	125.71
452.138	81.59
452.507	55.64
452.877	14.11
453.246	68.61
453.615	117.92
453.985	71.21
454.354	130.9
454.723	89.37
455.092	151.66
455.462	99.75
455.831	164.64
456.2	172.42
456.569	193.18
456.938	146.47
457.307	42.66
457.675	213.95
458.044	219.14
458.413	110.14
458.782	175.02
459.15	91.97
459.519	115.33
459.888	60.83
460.256	151.66
460.625	71.21
460.993	169.83
461.362	66.02
461.73	99.75
462.098	53.04
462.467	99.75
462.835	112.73
463.203	211.35
463.571	110.14
463.939	128.3
464.307	120.52
464.675	151.66
465.043	128.3
465.411	146.47
465.779	99.75
466.147	89.37
466.515	104.95
466.883	102.35
467.25	284.02
467.618	167.23
467.986	94.56
468.353	159.45
468.721	45.25
469.088	104.95
469.456	71.21
469.823	91.97
470.19	143.87
470.558	211.35
470.925	71.21
471.292	60.83
471.659	224.33
472.027	213.95
472.394	180.21
472.761	162.04
473.128	156.85
473.495	177.61
473.862	68.61
474.228	66.02
474.595	37.47
474.962	117.92
475.329	149.06
475.695	110.14
476.062	60.83
476.429	125.71
476.795	117.92
477.162	141.28
477.528	78.99
477.895	53.04
478.261	159.45
478.627	162.04
478.994	27.09
479.36	110.14
479.726	97.16
480.092	86.78
480.458	63.42
480.824	162.04
481.19	21.9
481.556	66.02
481.922	68.61
482.288	45.25
482.654	208.75
483.02	102.35
483.385	125.71
483.751	99.75
484.117	125.71
484.482	86.78
484.848	97.16
485.213	159.45
485.579	125.71
485.944	8.92
486.31	102.35
486.675	78.99
487.04	167.23
487.406	149.06
487.771	206.16
488.136	169.83
488.501	104.95
488.866	107.54
489.231	216.54
489.596	143.87
489.961	213.95
490.326	195.78
490.691	76.4
491.056	97.16
491.42	76.4
491.785	125.71
492.15	107.54
492.514	190.59
492.879	232.11
493.243	91.97
493.608	143.87
493.972	94.56
494.337	187.99
494.701	73.8
495.065	107.54
495.43	47.85
495.794	71.21
496.158	81.59
496.522	91.97
496.886	47.85
497.25	73.8
497.614	76.4
497.978	102.35
498.342	89.37
498.706	27.09
499.07	154.25
499.433	89.37
499.797	117.92
500.161	104.95
500.524	53.04
500.888	97.16
501.251	63.42
501.615	172.42
501.978	123.11
502.342	117.92
502.705	117.92
503.068	60.83
503.432	115.33
503.795	14.11
504.158	104.95
504.521	107.54
504.884	169.83
505.247	107.54
505.61	37.47
505.973	138.68
506.336	94.56
506.699	-22.22
507.062	78.99
507.424	141.28
507.787	133.49
508.15	133.49
508.512	104.95
508.875	104.95
509.238	141.28
509.6	125.71
509.962	99.75
510.325	102.35
510.687	50.44
511.049	-14.44
511.412	180.21
511.774	63.42
512.136	107.54
512.498	159.45
512.86	94.56
513.222	50.44
513.584	71.21
513.946	6.33
514.308	60.83
514.67	97.16
515.032	107.54
515.393	208.75
515.755	151.66
516.117	60.83
516.478	73.8
516.84	71.21
517.201	107.54
517.563	162.04
517.924	104.95
518.286	138.68
518.647	97.16
519.008	110.14
519.37	120.52
519.731	185.4
520.092	-6.65
520.453	182.8
520.814	58.23
521.175	177.61
521.536	156.85
521.897	187.99
522.258	37.47
522.619	110.14
522.979	55.64
523.34	185.4
523.701	128.3
524.061	94.56
524.422	110.14
524.783	164.64
525.143	89.37
525.504	156.85
525.864	149.06
526.224	167.23
526.585	34.87
526.945	84.18
527.305	60.83
527.665	99.75
528.025	154.25
528.385	141.28
528.746	91.97
529.106	206.16
529.465	125.71
529.825	146.47
530.185	63.42
530.545	94.56
530.905	138.68
531.264	185.4
531.624	8.92
531.984	175.02
532.343	19.3
532.703	73.8
533.062	42.66
533.422	198.37
533.781	156.85
534.141	84.18
534.5	55.64
534.859	200.97
535.218	112.73
535.577	81.59
535.937	81.59
536.296	97.16
536.655	138.68
537.014	125.71
537.373	219.14
537.731	154.25
538.09	107.54
538.449	213.95
538.808	180.21
539.166	190.59
539.525	175.02
539.884	151.66
540.242	141.28
540.601	159.45
540.959	206.16
541.318	237.3
541.676	265.85
542.034	411.18
542.393	502.02
542.751	527.97
543.109	491.64
543.467	623.99
543.825	473.47
544.183	520.18
544.541	629.18
544.899	559.11
545.257	450.11
545.615	416.37
545.973	533.16
546.331	530.56
546.688	639.56
547.046	509.8
547.404	356.68
547.761	299.59
548.119	211.35
548.476	265.85
548.834	284.02
549.191	216.54
549.548	169.83
549.906	200.97
550.263	104.95
550.62	216.54
550.977	164.64
551.334	195.78
551.691	180.21
552.048	185.4
552.405	219.14
552.762	252.87
553.119	143.87
553.476	177.61
553.833	177.61
554.189	112.73
554.546	187.99
554.903	107.54
555.259	112.73
555.616	107.54
555.972	66.02
556.329	123.11
556.685	162.04
557.042	78.99
557.398	91.97
557.754	110.14
558.11	14.11
558.467	115.33
558.823	130.9
559.179	128.3
559.535	120.52
559.891	198.37
560.247	91.97
560.603	47.85
560.958	53.04
561.314	130.9
561.67	112.73
562.026	130.9
562.381	130.9
562.737	71.21
563.092	42.66
563.448	128.3
563.803	151.66
564.159	136.09
564.514	143.87
564.869	81.59
565.225	151.66
565.58	-24.82
565.935	133.49
566.29	86.78
566.645	130.9
567	120.52
567.355	94.56
567.71	125.71
568.065	151.66
568.42	37.47
568.775	89.37
569.13	102.35
569.484	50.44
569.839	42.66
570.193	6.33
570.548	78.99
570.903	73.8
571.257	45.25
571.611	91.97
571.966	58.23
572.32	32.28
572.674	19.3
573.029	11.52
573.383	3.73
573.737	58.23
574.091	45.25
574.445	68.61
574.799	81.59
575.153	34.87
575.507	115.33
575.861	68.61
576.215	94.56
576.568	156.85
576.922	34.87
577.276	-17.03
577.629	115.33
577.983	91.97
578.336	81.59
578.69	6.33
579.043	55.64
579.397	185.4
579.75	1.14
580.103	71.21
580.456	94.56
580.81	125.71
581.163	50.44
581.516	60.83
581.869	117.92
582.222	55.64
582.575	50.44
582.928	42.66
583.281	104.95
583.633	34.87
583.986	112.73
584.339	37.47
584.691	29.68
585.044	-11.84
585.397	162.04
585.749	172.42
586.102	68.61
586.454	1.14
586.806	58.23
587.159	6.33
587.511	-50.77
587.863	-40.39
588.215	-53.36
588.567	37.47
588.92	-102.67
589.272	-53.36
589.624	-6.65
589.975	-9.25
590.327	-107.86
590.679	-48.17
591.031	-48.17
591.383	-87.1
591.734	-1.46
592.086	-61.15
592.438	-118.25
592.789	-97.48
593.141	-284.34
593.492	-286.94
593.844	-245.41
594.195	-154.58
594.546	-232.44
594.898	-190.91
595.249	-149.39
595.6	-71.53
595.951	-105.27
596.302	-30.01
596.653	-170.15
597.004	-81.91
597.355	-27.41
597.706	-55.96
598.057	-115.65
598.408	-128.63
598.758	-167.56
599.109	-336.25
599.46	-320.67
599.81	-406.32
600.161	-377.77
600.511	-499.75
600.862	-279.15
601.212	-292.13
601.562	-328.46
601.913	-227.25
602.263	-151.98
602.613	-209.08
602.963	-185.72
603.313	-144.2
603.663	-141.6
604.013	-206.48
604.363	-175.34
604.713	-157.17
605.063	-235.03
605.413	-170.15
605.763	-188.32
606.112	-255.79
606.462	-214.27
606.812	-297.32
607.161	-393.34
607.511	-388.15
607.86	-502.34
608.21	-619.13
608.559	-650.27
608.908	-946.13
609.258	-1286.1
609.607	-1447.01
609.956	-2111.39
610.305	-3232.53
610.654	-5412.54
611.003	-9463.7
611.352	-14724.26
611.701	-17890.45
612.05	-17184.54
612.399	-14791.73
612.748	-11622.94
613.097	-9310.59
613.445	-7743.06
613.794	-6331.25
614.143	-5788.84
614.491	-5313.92
614.84	-4953.18
615.188	-4688.46
615.537	-4184.99
615.885	-3624.41
616.233	-2965.22
616.581	-2601.89
616.93	-2181.46
617.278	-1916.75
617.626	-1740.27
617.974	-1576.77
618.322	-1353.58
618.67	-1423.65
619.018	-1467.77
619.366	-1488.53
619.714	-1527.46
620.061	-1607.91
620.409	-1714.32
620.757	-1753.25
621.104	-1831.1
621.452	-1823.32
621.799	-1631.27
622.147	-1706.53
622.494	-1579.37
622.842	-1540.44
623.189	-1584.56
623.536	-1478.15
623.884	-1421.06
624.231	-1462.58
624.578	-1447.01
624.925	-1436.63
625.272	-1301.68
625.619	-1236.79
625.966	-1241.98
626.313	-1171.91
626.66	-1161.53
627.007	-1114.82
627.353	-1125.2
627.7	-1171.91
628.047	-1127.79
628.393	-1081.08
628.74	-1130.39
629.086	-1171.91
629.433	-1195.27
629.779	-1322.44
630.125	-1472.96
630.472	-1735.08
630.818	-2088.03
631.164	-2804.32
631.51	-2978.2
631.857	-2949.65
632.203	-2422.82
632.549	-1794.77
632.895	-1286.1
633.24	-883.84
633.586	-722.94
633.932	-538.67
634.278	-375.17
634.624	-385.56
634.969	-289.53
635.315	-284.34
635.66	-281.75
636.006	-302.51
636.351	-211.67
636.697	-271.36
637.042	-113.06
637.388	-268.77
637.733	-128.63
638.078	-50.77
638.423	496.83
638.768	1218.3
639.113	1337.68
639.458	1610.18
639.803	1721.78
640.148	1262.42
640.493	699.25
640.838	559.11
641.183	263.25
641.527	89.37
641.872	-102.67
642.217	-107.86
642.561	-45.58
642.906	-229.84
643.25	-211.67
643.595	-214.27
643.939	-201.29
644.284	-227.25
644.628	-74.13
644.972	-237.63
645.316	-240.22
645.66	-232.44
646.004	-224.65
646.348	-203.89
646.692	-219.46
647.036	-209.08
647.38	-216.86
647.724	-209.08
648.068	-162.36
648.412	-294.72
648.755	-338.84
649.099	-214.27
649.443	-271.36
649.786	-312.89
650.13	-440.06
650.473	-707.37
650.816	-979.87
651.16	-972.08
651.503	-878.65
651.846	-735.91
652.189	-606.15
652.533	-466.01
652.876	-510.13
653.219	-416.7
653.562	-463.41
653.905	-408.91
654.247	-458.22
654.59	-336.25
654.933	-229.84
655.276	-258.39
655.619	-190.91
655.961	-154.58
656.304	-107.86
656.646	-92.29
656.989	-105.27
657.331	-14.44
657.674	-235.03
658.016	-144.2
658.358	-266.17
658.701	-214.27
659.043	-320.67
659.385	-289.53
659.727	-126.03
660.069	-240.22
660.411	-240.22
660.753	-58.56
661.095	-115.65
661.437	-100.08
661.778	-154.58
662.12	-312.89
662.462	-349.22
662.804	-634.7
663.145	-689.2
663.487	-453.03
663.828	-486.77
664.17	-424.48
664.511	-390.75
664.852	-357.01
665.194	-359.6
665.535	-209.08
665.876	-177.94
666.217	-81.91
666.558	-170.15
666.899	-229.84
667.24	-222.06
667.581	-224.65
667.922	-193.51
668.263	-97.48
668.604	-258.39
668.944	-289.53
669.285	-214.27
669.626	-216.86
669.966	-139.01
670.307	-198.7
670.647	-229.84
670.988	-237.63
671.328	-89.7
671.669	-185.72
672.009	-216.86
672.349	-175.34
672.689	-136.41
673.029	-149.39
673.369	-53.36
673.71	-276.56
674.049	-100.08
674.389	-164.96
674.729	-113.06
675.069	-136.41
675.409	-14.44
675.749	-87.1
676.088	-79.32
676.428	-105.27
676.768	-136.41
677.107	-190.91
677.447	-133.82
677.786	-35.2
678.125	-209.08
678.465	-185.72
678.804	-76.72
679.143	-255.79
679.482	-211.67
679.821	-146.79
680.161	-141.6
680.5	-175.34
680.839	-193.51
681.177	-284.34
681.516	-115.65
681.855	-188.32
682.194	-126.03
682.533	-175.34
682.871	-185.72
683.21	-164.96
683.549	-113.06
683.887	-172.75
684.225	-84.51
684.564	-58.56
684.902	-79.32
685.241	-68.94
685.579	-84.51
685.917	-87.1
686.255	-170.15
686.593	-170.15
686.931	-216.86
687.269	-338.84
687.607	-471.2
687.945	-455.63
688.283	-466.01
688.621	-447.84
688.959	-421.89
689.296	-377.77
689.634	-245.41
689.972	-162.36
690.309	-79.32
690.647	-151.98
690.984	-139.01
691.322	-136.41
691.659	-141.6
691.996	-42.98
692.333	-50.77
692.671	-66.34
693.008	-216.86
693.345	-136.41
693.682	-328.46
694.019	-432.27
694.356	-279.15
694.693	-369.98
695.03	-232.44
695.366	-211.67
695.703	-209.08
696.04	-63.75
696.376	-84.51
696.713	-164.96
697.05	-24.82
697.386	-107.86
697.722	8.92
698.059	-81.91
698.395	76.4
698.731	-19.63
699.068	-19.63
699.404	-22.22
699.74	-63.75
700.076	50.44
700.412	-37.79
700.748	-1.46
701.084	-53.36
701.42	-53.36
701.756	-37.79
702.091	-71.53
702.427	-63.75
702.763	-123.44
703.098	-154.58
703.434	-79.32
703.769	-172.75
704.105	-146.79
704.44	-141.6
704.776	-146.79
705.111	-198.7
705.446	-299.91
705.781	-380.36
706.117	-536.08
706.452	-606.15
706.787	-886.44
707.122	-1117.41
707.457	-1112.22
707.792	-1296.48
708.126	-1187.48
708.461	-1047.34
708.796	-1145.96
709.131	-1415.87
709.465	-1579.37
709.8	-1524.87
710.134	-1169.32
710.469	-927.96
710.803	-751.48
711.138	-515.32
711.472	-504.94
711.806	-606.15
712.14	-761.87
712.475	-1130.39
712.809	-1299.08
713.143	-1151.15
713.477	-1062.91
713.811	-767.06
714.145	-655.46
714.479	-294.72
714.812	-260.98
715.146	-144.2
715.48	-110.46
715.814	-146.79
716.147	-30.01
716.481	-35.2
716.814	-22.22
717.148	-40.39
717.481	71.21
717.814	14.11
718.148	-40.39
718.481	-50.77
718.814	-74.13
719.147	68.61
719.48	-11.84
719.813	-58.56
720.146	-42.98
720.479	11.52
720.812	53.04
721.145	-79.32
721.478	3.73
721.81	-4.06
722.143	3.73
722.476	29.68
722.808	-58.56
723.141	-19.63
723.473	-24.82
723.806	8.92
724.138	94.56
724.47	-45.58
724.803	55.64
725.135	1.14
725.467	-14.44
725.799	29.68
726.131	11.52
726.463	-81.91
726.795	29.68
727.127	94.56
727.459	76.4
727.791	-32.6
728.122	-42.98
728.454	53.04
728.786	3.73
729.117	11.52
729.449	-24.82
729.78	-4.06
730.112	-11.84
730.443	-17.03
730.774	60.83
731.106	-24.82
731.437	120.52
731.768	-55.96
732.099	6.33
732.43	78.99
732.761	37.47
733.092	-92.29
733.423	16.71
733.754	-19.63
734.085	-9.25
734.416	6.33
734.746	3.73
735.077	-4.06
735.407	-48.17
735.738	-42.98
736.068	1.14
736.399	-1.46
736.729	11.52
737.06	81.59
737.39	19.3
737.72	34.87
738.05	-27.41
738.38	24.49
738.71	3.73
739.041	-6.65
739.37	37.47
739.7	27.09
740.03	-24.82
740.36	11.52
740.69	-4.06
741.02	-81.91
741.349	89.37
741.679	-35.2
742.008	14.11
742.338	42.66
742.667	-37.79
742.997	-24.82
743.326	-19.63
743.655	-14.44
743.984	86.78
744.314	-27.41
744.643	16.71
744.972	-63.75
745.301	-164.96
745.63	-30.01
745.959	68.61
746.288	16.71
746.616	-58.56
746.945	-11.84
747.274	3.73
747.603	42.66
747.931	-14.44
748.26	32.28
748.588	-9.25
748.917	58.23
749.245	-42.98
749.573	-9.25
749.902	-17.03
750.23	40.06
750.558	37.47
750.886	8.92
751.214	50.44
751.542	29.68
751.87	58.23
752.198	1.14
752.526	-11.84
752.854	-50.77
753.182	-32.6
753.509	-113.06
753.837	-74.13
754.165	8.92
754.492	-27.41
754.82	-27.41
755.147	29.68
755.474	8.92
755.802	16.71
756.129	6.33
756.456	45.25
756.783	47.85
757.111	40.06
757.438	-19.63
757.765	11.52
758.092	27.09
758.418	78.99
758.745	-58.56
759.072	-17.03
759.399	-100.08
759.726	-211.67
760.052	-403.72
760.379	-453.03
760.705	-536.08
761.032	-432.27
761.358	-227.25
761.685	-260.98
762.011	-128.63
762.337	-128.63
762.663	-81.91
762.99	-1.46
763.316	-37.79
763.642	73.8
763.968	27.09
764.294	-162.36
764.62	-120.84
764.946	-102.67
765.271	66.02
765.597	63.42
765.923	-58.56
766.248	50.44
766.574	34.87
766.9	55.64
767.225	107.54
767.55	-19.63
767.876	34.87
768.201	-27.41
768.526	45.25
768.852	1.14
769.177	19.3
769.502	-61.15
769.827	-68.94
770.152	-151.98
770.477	-48.17
770.802	-4.06
771.127	66.02
771.451	-81.91
771.776	19.3
772.101	21.9
772.425	6.33
772.75	55.64
773.075	24.49
773.399	120.52
773.723	45.25
774.048	1.14
774.372	11.52
774.696	55.64
775.02	1.14
775.345	-9.25
775.669	76.4
775.993	-11.84
776.317	53.04
776.641	14.11
776.965	29.68
777.288	125.71
777.612	-79.32
777.936	14.11
778.26	-4.06
778.583	45.25
778.907	-1.46
779.23	40.06
779.554	53.04
779.877	37.47
780.2	19.3
780.524	-55.96
780.847	58.23
781.17	97.16
781.493	-40.39
781.816	-66.34
782.139	27.09
782.462	37.47
782.785	16.71
783.108	-53.36
783.431	-14.44
783.754	78.99
784.076	130.9
784.399	16.71
784.722	42.66
785.044	32.28
785.367	63.42
785.689	-45.58
786.011	-4.06
786.334	-126.03
786.656	-17.03
786.978	-89.7
787.3	-45.58
787.622	1.14
787.944	6.33
788.266	58.23
788.588	32.28
788.91	-35.2
789.232	3.73
789.554	32.28
789.876	68.61
790.197	19.3
790.519	-24.82
790.841	27.09
791.162	19.3
791.483	6.33
791.805	-71.53
792.126	104.95
792.448	32.28
792.769	-30.01
793.09	32.28
793.411	-17.03
793.732	45.25
794.053	29.68
794.374	29.68
794.695	50.44
795.016	-1.46
795.337	68.61
795.658	120.52
795.978	78.99
796.299	-84.51
796.619	-55.96
796.94	27.09
797.261	6.33
797.581	11.52
797.901	16.71
798.222	6.33
798.542	-35.2
798.862	32.28
799.182	14.11
799.502	11.52
799.822	6.33
800.142	-4.06
800.462	19.3
800.782	-17.03
801.102	-42.98
801.422	104.95
801.742	53.04
802.061	-35.2
802.381	-27.41
802.701	-42.98
803.02	66.02
803.339	-27.41
803.659	27.09
803.978	-14.44
804.298	24.49
804.617	84.18
804.936	16.71
805.255	6.33
805.574	-9.25
805.893	-50.77
806.212	34.87
806.531	-71.53
806.85	-71.53
807.169	29.68
807.487	-32.6
807.806	-48.17
808.125	-27.41
808.443	-6.65
808.762	-74.13
809.08	-94.89
809.399	19.3
809.717	-58.56
810.035	-6.65
810.354	-35.2
810.672	-167.56
810.99	-312.89
811.308	-585.39
811.626	-725.53
811.944	-689.2
812.262	-541.27
812.58	-429.67
812.898	-248.01
813.216	-146.79
813.533	-118.25
813.851	-55.96
814.169	-66.34
814.486	-17.03
814.804	45.25
815.121	47.85
815.438	27.09
815.756	-50.77
816.073	-55.96
816.39	-107.86
816.707	6.33
817.025	-9.25
817.342	-11.84
817.659	-50.77
817.976	68.61
818.292	-118.25
818.609	3.73
818.926	-27.41
819.243	-115.65
819.559	-164.96
819.876	-40.39
820.193	-92.29
820.509	-87.1
820.826	-71.53
821.142	66.02
821.458	-11.84
821.775	55.64
822.091	68.61
822.407	-22.22
822.723	19.3
823.039	47.85
823.355	-4.06
823.671	-30.01
823.987	1.14
824.303	-68.94
824.619	-19.63
824.935	11.52
825.25	-11.84
825.566	8.92
825.881	50.44
826.197	-53.36
826.512	-120.84
826.828	-11.84
827.143	-32.6
827.458	-81.91
827.774	16.71
828.089	97.16
828.404	-136.41
828.719	-27.41
829.034	-27.41
829.349	-4.06
829.664	-61.15
829.979	-76.72
830.294	-250.6
830.608	-260.98
830.923	-102.67
831.238	-68.94
831.552	-118.25
831.867	-35.2
832.181	-76.72
832.496	40.06
832.81	60.83
833.124	42.66
833.439	-45.58
833.753	-40.39
834.067	84.18
834.381	66.02
834.695	3.73
835.009	53.04
835.323	-22.22
835.637	19.3
835.951	1.14
836.264	29.68
836.578	91.97
836.892	34.87
837.205	71.21
837.519	-27.41
837.832	1.14
838.146	42.66
838.459	19.3
838.772	-92.29
839.086	60.83
839.399	91.97
839.712	40.06
840.025	21.9
840.338	3.73
840.651	8.92
840.964	47.85
841.277	-63.75
841.59	128.3
841.902	47.85
842.215	-71.53
842.528	78.99
842.84	-55.96
843.153	73.8
843.465	32.28
843.778	86.78
844.09	-55.96
844.403	32.28
844.715	24.49
845.027	3.73
845.339	-9.25
845.651	78.99
845.963	86.78
846.275	89.37
846.587	8.92
846.899	24.49
847.211	16.71
847.523	1.14
847.834	-71.53
848.146	68.61
848.457	37.47
848.769	6.33
849.08	34.87
849.392	-22.22
849.703	-45.58
850.015	-14.44
850.326	11.52
850.637	-53.36
850.948	-61.15
851.259	16.71
851.57	-76.72
851.881	24.49
852.192	-4.06
852.503	66.02
852.814	-40.39
853.125	73.8
853.435	-42.98
853.746	16.71
854.056	110.14
854.367	91.97
854.677	-63.75
854.988	89.37
855.298	104.95
855.609	104.95
855.919	60.83
856.229	34.87
856.539	78.99
856.849	71.21
857.159	34.87
857.469	71.21
857.779	1.14
858.089	11.52
858.399	-1.46
858.708	-37.79
859.018	27.09
859.328	45.25
859.637	-27.41
859.947	21.9
860.256	37.47
860.566	11.52
860.875	-30.01
861.184	-50.77
861.494	-42.98
861.803	47.85
862.112	107.54
862.421	102.35
862.73	91.97
863.039	19.3
863.348	125.71
863.657	27.09
863.965	-19.63
864.274	-6.65
864.583	45.25
864.891	45.25
865.2	-45.58
865.509	-1.46
865.817	42.66
866.125	27.09
866.434	99.75
866.742	-81.91
867.05	-22.22
867.358	24.49
867.666	58.23
867.975	42.66
868.283	50.44
868.59	73.8
868.898	-6.65
869.206	1.14
869.514	34.87
869.822	-9.25
870.129	14.11
870.437	-1.46
870.744	-74.13
871.052	8.92
871.359	117.92
871.667	97.16
871.974	24.49
872.281	32.28
872.589	50.44
872.896	47.85
873.203	8.92
873.51	16.71
873.817	-48.17
874.124	45.25
874.431	21.9
874.737	117.92
875.044	-19.63
875.351	-9.25
875.658	-32.6
875.964	40.06
876.271	-1.46
876.577	40.06
876.884	3.73
877.19	-24.82
877.496	-151.98
877.802	-4.06
878.109	-164.96
878.415	-19.63
878.721	-50.77
879.027	-84.51
879.333	-45.58
879.639	-22.22
879.945	-37.79
880.25	-89.7
880.556	40.06
880.862	-66.34
881.167	21.9
881.473	-40.39
881.778	40.06
882.084	47.85
882.389	32.28
882.695	128.3
883	133.49
883.305	-24.82
883.61	32.28
883.915	-17.03
884.22	53.04
884.525	81.59
884.83	1.14
885.135	-32.6
885.44	146.47
885.745	-68.94
886.05	-9.25
886.354	55.64
886.659	-9.25
886.963	81.59
887.268	-14.44
887.572	71.21
887.877	149.06
888.181	29.68
888.485	-6.65
888.789	-19.63
889.093	-14.44
889.398	120.52
889.702	34.87
890.006	84.18
890.309	-1.46
890.613	146.47
890.917	1.14
891.221	-37.79
891.525	3.73
891.828	-27.41
892.132	-63.75
892.435	-110.46
892.739	-1.46
893.042	-79.32
893.345	-42.98
893.649	-53.36
893.952	-27.41
894.255	-151.98
894.558	-81.91
894.861	-63.75
895.164	-66.34
895.467	-11.84
895.77	97.16
896.073	-1.46
896.376	60.83
896.678	-19.63
896.981	-27.41
897.284	-53.36
897.586	27.09
897.889	16.71
898.191	19.3
898.493	-22.22
898.796	37.47
899.098	-45.58
899.4	27.09
899.702	21.9
900.004	110.14
900.306	-61.15
900.608	73.8
900.91	110.14
901.212	76.4
901.514	-14.44
901.816	-1.46
902.117	76.4
902.419	27.09
902.721	-17.03
903.022	-9.25
903.323	-6.65
903.625	-50.77
903.926	27.09
904.227	-19.63
904.529	60.83
904.83	141.28
905.131	19.3
905.432	89.37
905.733	71.21
906.034	-17.03
906.335	1.14
906.636	16.71
906.936	-50.77
907.237	6.33
907.538	16.71
907.838	-6.65
908.139	-30.01
908.439	34.87
908.74	-9.25
909.04	78.99
909.34	21.9
909.641	24.49
909.941	133.49
910.241	19.3
910.541	11.52
910.841	-48.17
911.141	-37.79
911.441	89.37
911.741	133.49
912.04	60.83
912.34	40.06
912.64	-4.06
912.939	84.18
913.239	76.4
913.538	-32.6
913.838	42.66
914.137	27.09
914.436	71.21
914.736	32.28
915.035	14.11
915.334	14.11
915.633	1.14
915.932	-1.46
916.231	34.87
916.53	-32.6
916.829	3.73
917.128	-58.56
917.426	11.52
917.725	1.14
918.024	84.18
918.322	78.99
918.621	42.66
918.919	40.06
919.217	3.73
919.516	29.68
919.814	-45.58
920.112	117.92
920.41	78.99
920.709	-11.84
921.007	16.71
921.305	-14.44
921.602	19.3
921.9	89.37
922.198	-45.58
922.496	-30.01
922.794	94.56
923.091	-79.32
923.389	6.33
923.686	58.23
923.984	-48.17
924.281	-11.84
924.578	45.25
924.876	-71.53
925.173	-35.2
925.47	71.21
925.767	8.92
926.064	-48.17
926.361	-68.94
926.658	-24.82
926.955	34.87
927.252	-6.65
927.549	-27.41
927.845	-4.06
928.142	1.14
928.438	6.33
928.735	-4.06
929.031	45.25
929.328	73.8
929.624	-22.22
929.92	-9.25
930.217	-30.01
930.513	99.75
930.809	34.87
931.105	128.3
931.401	24.49
931.697	-22.22
931.993	27.09
932.289	-22.22
932.584	-68.94
932.88	-123.44
933.176	40.06
933.471	42.66
933.767	110.14
934.062	128.3
934.358	24.49
934.653	-17.03
934.948	-1.46
935.244	6.33
935.539	55.64
935.834	-19.63
936.129	-53.36
936.424	-6.65
936.719	-24.82
937.014	112.73
937.309	86.78
937.603	55.64
937.898	45.25
938.193	-76.72
938.487	-11.84
938.782	47.85
939.076	-55.96
939.371	-50.77
939.665	42.66
939.959	-6.65
940.254	125.71
940.548	47.85
940.842	-17.03
941.136	117.92
941.43	99.75
941.724	34.87
942.018	-55.96
942.311	29.68
942.605	-32.6
942.899	27.09
943.193	73.8
943.486	58.23
943.78	11.52
944.073	-1.46
944.367	-81.91
944.66	40.06
944.953	136.09
945.246	-63.75
945.54	78.99
945.833	-84.51
946.126	-9.25
946.419	81.59
946.712	16.71
947.005	32.28
947.297	-71.53
947.59	50.44
947.883	99.75
948.176	11.52
948.468	107.54
948.761	14.11
949.053	32.28
949.346	27.09
949.638	-131.22
949.93	8.92
950.222	-9.25
950.515	45.25
950.807	-61.15
951.099	-11.84
951.391	24.49
951.683	-27.41
951.975	102.35
952.266	86.78
952.558	66.02
952.85	81.59
953.141	128.3
953.433	89.37
953.725	8.92
954.016	66.02
954.307	-9.25
954.599	27.09
954.89	53.04
955.181	-17.03
955.472	37.47
955.763	24.49
956.055	-123.44
956.346	14.11
956.636	63.42
956.927	16.71
957.218	55.64
957.509	-11.84
957.8	37.47
958.09	-63.75
958.381	63.42
958.671	27.09
958.962	-45.58
959.252	-14.44
959.542	115.33
959.833	34.87
960.123	53.04
960.413	68.61
960.703	1.14
960.993	50.44
961.283	29.68
961.573	-1.46
961.863	16.71
962.153	71.21
962.442	-6.65
962.732	40.06
963.022	55.64
963.311	21.9
963.601	16.71
963.89	-32.6
964.18	110.14
964.469	6.33
964.758	-22.22
965.047	58.23
965.337	40.06
965.626	32.28
965.915	-92.29
966.204	3.73
966.493	42.66
966.781	21.9
967.07	40.06
967.359	-1.46
967.648	-53.36
967.936	66.02
968.225	76.4
968.513	11.52
968.802	-55.96
969.09	34.87
969.378	-55.96
969.666	117.92
969.955	112.73
970.243	11.52
970.531	104.95
970.819	-4.06
971.107	-14.44
971.395	6.33
971.683	86.78
971.97	-1.46
972.258	-40.39
972.546	73.8
972.833	37.47
973.121	27.09
973.408	-81.91
973.696	-32.6
973.983	29.68
974.27	37.47
974.558	73.8
974.845	-53.36
975.132	19.3
975.419	73.8
975.706	1.14
975.993	-53.36
976.28	-55.96
976.566	53.04
976.853	14.11
977.14	-6.65
977.426	-40.39
977.713	42.66
978	19.3
978.286	-1.46
978.572	-19.63
978.859	29.68
979.145	40.06
979.431	-19.63
979.717	6.33
980.003	-1.46
980.289	29.68
980.575	-30.01
980.861	76.4
981.147	-4.06
981.433	3.73
981.719	-4.06
982.004	3.73
982.29	-4.06
982.575	-9.25
982.861	-14.44
983.146	-61.15
983.432	-1.46
983.717	110.14
984.002	24.49
984.287	16.71
984.573	14.11
984.858	-4.06
985.143	53.04
985.428	68.61
985.712	47.85
985.997	-42.98
986.282	32.28
986.567	81.59
986.851	104.95
987.136	53.04
987.42	50.44
987.705	76.4
987.989	-1.46
988.274	-37.79
988.558	14.11
988.842	42.66
989.126	71.21
989.41	-9.25
989.694	-89.7
989.978	47.85
990.262	-22.22
990.546	76.4
990.83	60.83
991.114	-17.03
991.397	1.14
991.681	-48.17
991.965	68.61
992.248	50.44
992.531	53.04
992.815	-32.6
993.098	-22.22
993.381	-24.82
993.665	-19.63
993.948	34.87
994.231	3.73
994.514	42.66
994.797	-71.53
995.08	40.06
995.362	78.99
995.645	29.68
995.928	55.64
996.211	-1.46
996.493	-68.94
996.776	125.71
997.058	19.3
997.34	32.28
997.623	19.3
997.905	-66.34
998.187	-6.65
998.469	45.25
998.752	24.49
999.034	40.06
999.316	89.37
999.597	32.28
999.879	-32.6
1000.161	-4.06
1000.443	8.92
1000.725	-4.06
1001.006	66.02
1001.288	37.47
1001.569	21.9
1001.851	81.59
1002.132	146.47
1002.413	3.73
1002.694	104.95
1002.976	66.02
1003.257	37.47
1003.538	-63.75
1003.819	-42.98
1004.1	45.25
1004.381	40.06
1004.661	-55.96
1004.942	-63.75
1005.223	21.9
1005.504	24.49
1005.784	-1.46
1006.065	-19.63
1006.345	37.47
1006.625	-6.65
1006.906	55.64
1007.186	112.73
1007.466	-48.17
1007.746	-61.15
1008.026	11.52
1008.306	-19.63
1008.586	-27.41
1008.866	86.78
1009.146	-32.6
1009.426	-58.56
1009.706	34.87
1009.985	11.52
1010.265	-27.41
1010.544	-24.82
1010.824	76.4
1011.103	11.52
1011.383	-17.03
1011.662	-22.22
1011.941	1.14
1012.22	78.99
1012.499	123.11
1012.778	-50.77
1013.057	76.4
1013.336	66.02
1013.615	11.52
1013.894	19.3
1014.173	24.49
1014.451	55.64
1014.73	50.44
1015.009	40.06
1015.287	71.21
1015.566	32.28
1015.844	-19.63
1016.122	-6.65
1016.4	6.33
1016.679	-37.79
1016.957	50.44
1017.235	19.3
1017.513	-27.41
1017.791	1.14
1018.069	99.75
1018.346	-94.89
1018.624	-14.44
1018.902	-45.58
1019.179	40.06
1019.457	-55.96
1019.735	89.37
1020.012	120.52
1020.289	53.04
1020.567	53.04
1020.844	53.04
