Data from Subt2_19-04-27-365.txt Node
Date: Wed Feb 22 19:04:27 CST 2023
User: Optics Lab
Spectrometer: FLMS14302
Trigger mode: 0
Integration Time (sec): 1.000000E-1
Scans to average: 1
Electric dark correction enabled: true
Nonlinearity correction enabled: false
Boxcar width: 0
XAxis mode: Wavelengths
Number of Pixels in Spectrum: 2048
>>>>>Begin Spectral Data<<<<<
338.578	14.92
338.961	14.92
339.343	14.92
339.725	-16.22
340.108	113.54
340.49	-86.29
340.872	17.52
341.254	33.09
341.636	22.71
342.018	-42.17
342.4	-62.93
342.782	12.33
343.164	30.49
343.546	4.54
343.928	9.73
344.309	4.54
344.691	1.95
345.073	30.49
345.455	-3.24
345.836	14.92
346.218	12.33
346.599	1.95
346.981	9.73
347.362	46.07
347.744	-101.86
348.125	-0.65
348.506	90.18
348.888	46.07
349.269	64.23
349.65	12.33
350.031	20.11
350.413	53.85
350.794	48.66
351.175	4.54
351.556	-0.65
351.937	-16.22
352.318	-13.63
352.698	-47.36
353.079	-39.58
353.46	-62.93
353.841	-44.77
354.222	-60.34
354.602	-65.53
354.983	77.21
355.363	-57.74
355.744	27.9
356.124	20.11
356.505	-11.03
356.885	-29.2
357.266	1.95
357.646	110.95
358.026	108.35
358.407	-5.84
358.787	77.21
359.167	-31.79
359.547	-68.13
359.927	84.99
360.307	33.09
360.687	-24.01
361.067	46.07
361.447	-75.91
361.827	-34.39
362.207	-18.82
362.587	-62.93
362.966	17.52
363.346	-8.43
363.726	1.95
364.105	4.54
364.485	25.3
364.865	-47.36
365.244	4.54
365.624	-49.96
366.003	84.99
366.382	-3.24
366.762	27.9
367.141	-3.24
367.52	-16.22
367.899	-11.03
368.279	22.71
368.658	-44.77
369.037	43.47
369.416	-44.77
369.795	9.73
370.174	66.83
370.553	17.52
370.932	-3.24
371.311	-57.74
371.689	-0.65
372.068	12.33
372.447	69.42
372.825	-34.39
373.204	59.04
373.583	9.73
373.961	90.18
374.34	-3.24
374.718	-81.1
375.097	4.54
375.475	118.73
375.853	27.9
376.232	48.66
376.61	35.68
376.988	48.66
377.366	1.95
377.744	-21.41
378.122	1.95
378.5	-18.82
378.878	66.83
379.256	-29.2
379.634	-21.41
380.012	-24.01
380.39	-21.41
380.768	-34.39
381.145	7.14
381.523	-26.6
381.901	64.23
382.278	-42.17
382.656	25.3
383.033	-3.24
383.411	105.76
383.788	-39.58
384.166	-52.55
384.543	116.14
384.921	-11.03
385.298	30.49
385.675	9.73
386.052	-36.98
386.429	-26.6
386.806	-5.84
387.184	-5.84
387.561	61.64
387.938	-70.72
388.314	48.66
388.691	-24.01
389.068	17.52
389.445	20.11
389.822	-47.36
390.198	35.68
390.575	-65.53
390.952	20.11
391.328	-36.98
391.705	12.33
392.081	84.99
392.458	-29.2
392.834	-11.03
393.211	53.85
393.587	72.02
393.963	-127.82
394.34	-16.22
394.716	25.3
395.092	-26.6
395.468	-42.17
395.844	-36.98
396.22	95.38
396.596	-49.96
396.972	-3.24
397.348	20.11
397.724	7.14
398.1	-55.15
398.476	43.47
398.851	17.52
399.227	-5.84
399.603	-83.7
399.978	25.3
400.354	48.66
400.729	-3.24
401.105	-18.82
401.48	66.83
401.856	-3.24
402.231	90.18
402.606	-49.96
402.982	-57.74
403.357	-8.43
403.732	-36.98
404.107	40.88
404.482	131.71
404.857	48.66
405.232	74.61
405.607	100.57
405.982	-16.22
406.357	14.92
406.732	-65.53
407.107	-68.13
407.482	-70.72
407.856	-133.01
408.231	-39.58
408.606	-8.43
408.98	-24.01
409.355	100.57
409.729	27.9
410.104	66.83
410.478	51.26
410.852	12.33
411.227	-13.63
411.601	46.07
411.975	17.52
412.35	118.73
412.724	-36.98
413.098	12.33
413.472	53.85
413.846	-68.13
414.22	12.33
414.594	33.09
414.968	30.49
415.342	20.11
415.715	74.61
416.089	20.11
416.463	-60.34
416.837	-26.6
417.21	20.11
417.584	-5.84
417.957	51.26
418.331	-34.39
418.704	12.33
419.078	40.88
419.451	90.18
419.824	66.83
420.198	-62.93
420.571	59.04
420.944	61.64
421.317	-52.55
421.69	64.23
422.064	-0.65
422.437	-0.65
422.81	-5.84
423.182	-16.22
423.555	90.18
423.928	66.83
424.301	9.73
424.674	48.66
425.047	-18.82
425.419	-11.03
425.792	48.66
426.164	-16.22
426.537	-49.96
426.91	-3.24
427.282	-0.65
427.654	9.73
428.027	33.09
428.399	-11.03
428.771	9.73
429.144	-16.22
429.516	40.88
429.888	-47.36
430.26	30.49
430.632	-104.46
431.004	43.47
431.376	46.07
431.748	90.18
432.12	-0.65
432.492	-5.84
432.864	77.21
433.236	-39.58
433.607	-83.7
433.979	-47.36
434.351	48.66
434.722	116.14
435.094	61.64
435.465	46.07
435.837	168.04
436.208	321.16
436.58	393.83
436.951	155.07
437.322	64.23
437.693	40.88
438.065	-5.84
438.436	46.07
438.807	40.88
439.178	-55.15
439.549	-57.74
439.92	105.76
440.291	12.33
440.662	-21.41
441.033	121.33
441.403	1.95
441.774	35.68
442.145	51.26
442.516	30.49
442.886	79.8
443.257	97.97
443.627	22.71
443.998	20.11
444.368	30.49
444.739	-26.6
445.109	33.09
445.479	17.52
445.85	20.11
446.22	-26.6
446.59	17.52
446.96	103.16
447.33	43.47
447.7	123.92
448.07	38.28
448.44	56.45
448.81	-26.6
449.18	-5.84
449.55	72.02
449.92	14.92
450.29	-13.63
450.659	-86.29
451.029	48.66
451.399	97.97
451.768	79.8
452.138	79.8
452.507	-16.22
452.877	90.18
453.246	43.47
453.615	-39.58
453.985	87.59
454.354	110.95
454.723	-26.6
455.092	9.73
455.462	-13.63
455.831	53.85
456.2	105.76
456.569	110.95
456.938	129.11
457.307	-70.72
457.675	108.35
458.044	144.68
458.413	53.85
458.782	100.57
459.15	121.33
459.519	59.04
459.888	66.83
460.256	-26.6
460.625	72.02
460.993	-26.6
461.362	-0.65
461.73	27.9
462.098	1.95
462.467	77.21
462.835	33.09
463.203	87.59
463.571	40.88
463.939	12.33
464.307	-13.63
464.675	51.26
465.043	27.9
465.411	46.07
465.779	74.61
466.147	14.92
466.515	25.3
466.883	43.47
467.25	142.09
467.618	72.02
467.986	90.18
468.353	48.66
468.721	33.09
469.088	40.88
469.456	66.83
469.823	64.23
470.19	-8.43
470.558	149.88
470.925	40.88
471.292	33.09
471.659	149.88
472.027	35.68
472.394	69.42
472.761	134.3
473.128	123.92
473.495	121.33
473.862	33.09
474.228	53.85
474.595	51.26
474.962	56.45
475.329	84.99
475.695	4.54
476.062	-21.41
476.429	77.21
476.795	121.33
477.162	90.18
477.528	-101.86
477.895	51.26
478.261	74.61
478.627	51.26
478.994	59.04
479.36	-42.17
479.726	9.73
480.092	87.59
480.458	-26.6
480.824	25.3
481.19	-68.13
481.556	-0.65
481.922	53.85
482.288	110.95
482.654	100.57
483.02	-18.82
483.385	149.88
483.751	118.73
484.117	35.68
484.482	-29.2
484.848	53.85
485.213	126.52
485.579	126.52
485.944	17.52
486.31	66.83
486.675	100.57
487.04	152.47
487.406	147.28
487.771	217.35
488.136	84.99
488.501	77.21
488.866	66.83
489.231	258.88
489.596	77.21
489.961	204.38
490.326	136.9
490.691	59.04
491.056	170.64
491.42	48.66
491.785	33.09
492.15	152.47
492.514	105.76
492.879	121.33
493.243	90.18
493.608	191.4
493.972	25.3
494.337	162.85
494.701	-5.84
495.065	103.16
495.43	59.04
495.794	38.28
496.158	77.21
496.522	17.52
496.886	35.68
497.25	22.71
497.614	-31.79
497.978	100.57
498.342	22.71
498.706	95.38
499.07	79.8
499.433	40.88
499.797	46.07
500.161	48.66
500.524	51.26
500.888	51.26
501.251	30.49
501.615	74.61
501.978	22.71
502.342	-0.65
502.705	40.88
503.068	108.35
503.432	56.45
503.795	95.38
504.158	149.88
504.521	186.21
504.884	90.18
505.247	27.9
505.61	17.52
505.973	142.09
506.336	72.02
506.699	33.09
507.062	113.54
507.424	131.71
507.787	7.14
508.15	14.92
508.512	61.64
508.875	77.21
509.238	48.66
509.6	69.42
509.962	48.66
510.325	20.11
510.687	79.8
511.049	-3.24
511.412	118.73
511.774	-34.39
512.136	123.92
512.498	66.83
512.86	-0.65
513.222	-49.96
513.584	17.52
513.946	-83.7
514.308	7.14
514.67	97.97
515.032	38.28
515.393	142.09
515.755	160.26
516.117	-5.84
516.478	90.18
516.84	79.8
517.201	27.9
517.563	110.95
517.924	173.23
518.286	48.66
518.647	40.88
519.008	25.3
519.37	4.54
519.731	4.54
520.092	-65.53
520.453	134.3
520.814	22.71
521.175	116.14
521.536	7.14
521.897	82.4
522.258	56.45
522.619	95.38
522.979	69.42
523.34	87.59
523.701	20.11
524.061	69.42
524.422	82.4
524.783	157.66
525.143	17.52
525.504	-68.13
525.864	9.73
526.224	25.3
526.585	48.66
526.945	90.18
527.305	17.52
527.665	87.59
528.025	90.18
528.385	4.54
528.746	33.09
529.106	181.02
529.465	48.66
529.825	90.18
530.185	27.9
530.545	-0.65
530.905	116.14
531.264	103.16
531.624	33.09
531.984	56.45
532.343	-26.6
532.703	64.23
533.062	46.07
533.422	139.49
533.781	64.23
534.141	48.66
534.5	-13.63
534.859	100.57
535.218	27.9
535.577	38.28
535.937	-31.79
536.296	-13.63
536.655	84.99
537.014	84.99
537.373	90.18
537.731	77.21
538.09	74.61
538.449	74.61
538.808	217.35
539.166	64.23
539.525	79.8
539.884	126.52
540.242	170.64
540.601	212.16
540.959	196.59
541.318	186.21
541.676	321.16
542.034	349.71
542.393	557.33
542.751	622.21
543.109	710.45
543.467	684.49
543.825	723.42
544.183	653.35
544.541	757.16
544.899	604.04
545.257	591.07
545.615	505.42
545.973	679.3
546.331	627.4
546.688	668.92
547.046	533.97
547.404	414.59
547.761	235.52
548.119	142.09
548.476	308.18
548.834	230.33
549.191	284.83
549.548	191.4
549.906	162.85
550.263	142.09
550.62	227.73
550.977	183.61
551.334	110.95
551.691	95.38
552.048	160.26
552.405	175.83
552.762	212.16
553.119	165.45
553.476	178.42
553.833	95.38
554.189	129.11
554.546	131.71
554.903	30.49
555.259	66.83
555.616	90.18
555.972	131.71
556.329	43.47
556.685	144.68
557.042	-29.2
557.398	79.8
557.754	97.97
558.11	-18.82
558.467	56.45
558.823	56.45
559.179	61.64
559.535	17.52
559.891	27.9
560.247	22.71
560.603	38.28
560.958	35.68
561.314	48.66
561.67	121.33
562.026	97.97
562.381	77.21
562.737	33.09
563.092	82.4
563.448	61.64
563.803	48.66
564.159	12.33
564.514	12.33
564.869	30.49
565.225	56.45
565.58	-36.98
565.935	56.45
566.29	95.38
566.645	61.64
567	53.85
567.355	116.14
567.71	-3.24
568.065	-91.48
568.42	-16.22
568.775	17.52
569.13	82.4
569.484	-73.32
569.839	-11.03
570.193	-39.58
570.548	25.3
570.903	35.68
571.257	87.59
571.611	87.59
571.966	69.42
572.32	-18.82
572.674	-18.82
573.029	-3.24
573.383	-29.2
573.737	-26.6
574.091	7.14
574.445	25.3
574.799	126.52
575.153	4.54
575.507	74.61
575.861	139.49
576.215	64.23
576.568	61.64
576.922	17.52
577.276	-5.84
577.629	116.14
577.983	110.95
578.336	4.54
578.69	-16.22
579.043	79.8
579.397	144.68
579.75	-34.39
580.103	131.71
580.456	173.23
580.81	139.49
581.163	66.83
581.516	100.57
581.869	56.45
582.222	69.42
582.575	-24.01
582.928	59.04
583.281	79.8
583.633	105.76
583.986	105.76
584.339	12.33
584.691	-117.43
585.044	-18.82
585.397	105.76
585.749	139.49
586.102	82.4
586.454	-24.01
586.806	66.83
587.159	-140.79
587.511	-49.96
587.863	-31.79
588.215	17.52
588.567	59.04
588.92	-96.67
589.272	-73.32
589.624	20.11
589.975	-13.63
590.327	-94.08
590.679	-55.15
591.031	-104.46
591.383	-62.93
591.734	-88.89
592.086	-47.36
592.438	-83.7
592.789	-187.51
593.141	-239.41
593.492	-221.24
593.844	-283.53
594.195	-223.84
594.546	-229.03
594.898	-265.36
595.249	-151.17
595.6	-68.13
595.951	-133.01
596.302	-145.98
596.653	-148.58
597.004	-127.82
597.355	-138.2
597.706	-120.03
598.057	-187.51
598.408	-179.72
598.758	-262.77
599.109	-322.46
599.46	-330.24
599.81	-431.46
600.161	-363.98
600.511	-421.08
600.862	-410.7
601.212	-299.1
601.562	-397.72
601.913	-275.74
602.263	-169.34
602.613	-200.48
602.963	-187.51
603.313	-275.74
603.663	-247.2
604.013	-120.03
604.363	-200.48
604.713	-223.84
605.063	-267.96
605.413	-242.01
605.763	-325.05
606.112	-332.84
606.462	-325.05
606.812	-353.6
607.161	-493.74
607.511	-382.15
607.86	-571.6
608.21	-698.77
608.559	-654.65
608.908	-1005.01
609.258	-1347.58
609.607	-1516.27
609.956	-2253.32
610.305	-3213.56
610.654	-5362.41
611.003	-9408.39
611.352	-14450.95
611.701	-17632.71
612.05	-16913.83
612.399	-14526.21
612.748	-11583.2
613.097	-9333.13
613.445	-7752.63
613.794	-6205.87
614.143	-5704.99
614.491	-5406.53
614.84	-4988.7
615.188	-4692.84
615.537	-4225.7
615.885	-3631.39
616.233	-3039.67
616.581	-2577.72
616.93	-2248.13
617.278	-1910.75
617.626	-1768.01
617.974	-1607.1
618.322	-1417.65
618.67	-1420.25
619.018	-1511.08
619.366	-1682.36
619.714	-1526.65
620.061	-1596.72
620.409	-1752.44
620.757	-1768.01
621.104	-1858.84
621.452	-1864.03
621.799	-1635.65
622.147	-1708.32
622.494	-1612.29
622.842	-1521.46
623.189	-1627.86
623.536	-1550.01
623.884	-1446.2
624.231	-1466.96
624.578	-1466.96
624.925	-1441.01
625.272	-1319.03
625.619	-1311.25
625.966	-1344.98
626.313	-1230.79
626.66	-1197.05
627.007	-1251.55
627.353	-1088.05
627.7	-1114.01
628.047	-1176.29
628.393	-1197.05
628.74	-1145.15
629.086	-1191.86
629.433	-1217.82
629.779	-1407.27
630.125	-1508.48
630.472	-1734.27
630.818	-2209.2
631.164	-2860.6
631.51	-3112.34
631.857	-3078.6
632.203	-2492.08
632.549	-1838.08
632.895	-1321.63
633.24	-1012.79
633.586	-864.86
633.932	-597.55
634.278	-415.89
634.624	-415.89
634.969	-366.58
635.315	-332.84
635.66	-325.05
636.006	-301.7
636.351	-265.36
636.697	-348.41
637.042	-254.98
637.388	-288.72
637.733	-151.17
638.078	-205.67
638.423	69.42
638.768	339.33
639.113	463.9
639.458	484.66
639.803	544.35
640.148	214.76
640.493	199.18
640.838	149.88
641.183	-39.58
641.527	-101.86
641.872	-130.41
642.217	-257.58
642.561	-195.29
642.906	-260.17
643.25	-216.05
643.595	-247.2
643.939	-203.08
644.284	-216.05
644.628	-109.65
644.972	-299.1
645.316	-353.6
645.66	-216.05
646.004	-270.55
646.348	-247.2
646.692	-239.41
647.036	-239.41
647.38	-252.39
647.724	-291.32
648.068	-208.27
648.412	-187.51
648.755	-332.84
649.099	-363.98
649.443	-260.17
649.786	-363.98
650.13	-478.17
650.473	-753.27
650.816	-1075.08
651.16	-1054.32
651.503	-960.89
651.846	-680.6
652.189	-626.1
652.533	-517.1
652.876	-496.34
653.219	-543.05
653.562	-532.67
653.905	-517.1
654.247	-522.29
654.59	-343.22
654.933	-322.46
655.276	-270.55
655.619	-156.36
655.961	-190.1
656.304	-208.27
656.646	-125.22
656.989	-177.13
657.331	-73.32
657.674	-260.17
658.016	-223.84
658.358	-286.13
658.701	-213.46
659.043	-249.79
659.385	-332.84
659.727	-86.29
660.069	-184.91
660.411	-247.2
660.753	-78.51
661.095	-130.41
661.437	-52.55
661.778	-265.36
662.12	-319.86
662.462	-376.96
662.804	-620.91
663.145	-613.13
663.487	-496.34
663.828	-540.46
664.17	-395.13
664.511	-408.1
664.852	-312.08
665.194	-312.08
665.535	-171.93
665.876	-182.32
666.217	-192.7
666.558	-192.7
666.899	-306.89
667.24	-179.72
667.581	-247.2
667.922	-267.96
668.263	-252.39
668.604	-210.86
668.944	-226.43
669.285	-218.65
669.626	-273.15
669.966	-138.2
670.307	-226.43
670.647	-184.91
670.988	-218.65
671.328	-184.91
671.669	-135.6
672.009	-260.17
672.349	-187.51
672.689	-114.84
673.029	-117.43
673.369	-120.03
673.71	-213.46
674.049	-73.32
674.389	-280.93
674.729	-210.86
675.069	-133.01
675.409	-91.48
675.749	-135.6
676.088	-99.27
676.428	-83.7
676.768	-158.96
677.107	-270.55
677.447	-275.74
677.786	-164.15
678.125	-88.89
678.465	-236.82
678.804	-130.41
679.143	-236.82
679.482	-135.6
679.821	-153.77
680.161	-270.55
680.5	-184.91
680.839	-192.7
681.177	-296.51
681.516	-169.34
681.855	-192.7
682.194	-164.15
682.533	-195.29
682.871	-210.86
683.21	-127.82
683.549	-200.48
683.887	-174.53
684.225	-75.91
684.564	-16.22
684.902	-151.17
685.241	-140.79
685.579	-47.36
685.917	-117.43
686.255	-153.77
686.593	-148.58
686.931	-174.53
687.269	-361.39
687.607	-439.24
687.945	-496.34
688.283	-522.29
688.621	-452.22
688.959	-498.93
689.296	-405.51
689.634	-288.72
689.972	-208.27
690.309	-138.2
690.647	-151.17
690.984	-120.03
691.322	-104.46
691.659	-120.03
691.996	-101.86
692.333	-107.05
692.671	-101.86
693.008	-156.36
693.345	-70.72
693.682	-283.53
694.019	-465.2
694.356	-286.13
694.693	-379.55
695.03	-327.65
695.366	-223.84
695.703	-125.22
696.04	-60.34
696.376	-190.1
696.713	-133.01
697.05	-65.53
697.386	-114.84
697.722	-39.58
698.059	-44.77
698.395	46.07
698.731	-18.82
699.068	-114.84
699.404	-107.05
699.74	-49.96
700.076	-39.58
700.412	-60.34
700.748	-78.51
701.084	-42.17
701.42	-101.86
701.756	-24.01
702.091	-117.43
702.427	-49.96
702.763	-52.55
703.098	-109.65
703.434	-122.63
703.769	-138.2
704.105	-148.58
704.44	-135.6
704.776	-169.34
705.111	-223.84
705.446	-291.32
705.781	-348.41
706.117	-550.84
706.452	-569.01
706.787	-844.1
707.122	-1184.08
707.457	-1124.39
707.792	-1272.32
708.126	-1114.01
708.461	-1010.2
708.796	-1054.32
709.131	-1399.48
709.465	-1596.72
709.8	-1500.7
710.134	-1181.48
710.469	-1025.77
710.803	-701.36
711.138	-589.77
711.472	-506.72
711.806	-626.1
712.14	-794.79
712.475	-1062.1
712.809	-1246.36
713.143	-1103.63
713.477	-1023.17
713.811	-703.96
714.145	-678.01
714.479	-384.74
714.812	-239.41
715.146	-174.53
715.48	-117.43
715.814	-187.51
716.147	-83.7
716.481	-62.93
716.814	-0.65
717.148	-42.17
717.481	-26.6
717.814	-26.6
718.148	-21.41
718.481	-88.89
718.814	-16.22
719.147	100.57
719.48	-8.43
719.813	9.73
720.146	-49.96
720.479	-13.63
720.812	-24.01
721.145	-24.01
721.478	-21.41
721.81	-78.51
722.143	-3.24
722.476	51.26
722.808	-34.39
723.141	-73.32
723.473	-13.63
723.806	-49.96
724.138	9.73
724.47	-52.55
724.803	56.45
725.135	-26.6
725.467	20.11
725.799	-73.32
726.131	-42.17
726.463	-107.05
726.795	12.33
727.127	25.3
727.459	14.92
727.791	61.64
728.122	33.09
728.454	46.07
728.786	-44.77
729.117	38.28
729.449	9.73
729.78	20.11
730.112	38.28
730.443	-60.34
730.774	64.23
731.106	-73.32
731.437	82.4
731.768	-39.58
732.099	-24.01
732.43	-26.6
732.761	-11.03
733.092	-26.6
733.423	-88.89
733.754	27.9
734.085	-18.82
734.416	4.54
734.746	-18.82
735.077	-24.01
735.407	-65.53
735.738	-0.65
736.068	33.09
736.399	-78.51
736.729	-57.74
737.06	74.61
737.39	-11.03
737.72	-60.34
738.05	7.14
738.38	-8.43
738.71	33.09
739.041	-62.93
739.37	43.47
739.7	-26.6
740.03	48.66
740.36	-49.96
740.69	-11.03
741.02	33.09
741.349	59.04
741.679	-42.17
742.008	35.68
742.338	40.88
742.667	33.09
742.997	-60.34
743.326	-88.89
743.655	43.47
743.984	35.68
744.314	-114.84
744.643	4.54
744.972	-75.91
745.301	-120.03
745.63	-18.82
745.959	51.26
746.288	27.9
746.616	-73.32
746.945	33.09
747.274	38.28
747.603	-57.74
747.931	-36.98
748.26	-16.22
748.588	14.92
748.917	113.54
749.245	27.9
749.573	12.33
749.902	-29.2
750.23	48.66
750.558	25.3
750.886	40.88
751.214	7.14
751.542	-5.84
751.87	27.9
752.198	53.85
752.526	-57.74
752.854	-86.29
753.182	-34.39
753.509	1.95
753.837	-29.2
754.165	33.09
754.492	-42.17
754.82	-26.6
755.147	48.66
755.474	33.09
755.802	30.49
756.129	14.92
756.456	12.33
756.783	38.28
757.111	48.66
757.438	-78.51
757.765	22.71
758.092	105.76
758.418	-11.03
758.745	-114.84
759.072	-55.15
759.399	-166.74
759.726	-218.65
760.052	-348.41
760.379	-452.22
760.705	-553.43
761.032	-400.32
761.358	-301.7
761.685	-267.96
762.011	-153.77
762.337	-78.51
762.663	-81.1
762.99	35.68
763.316	27.9
763.642	-0.65
763.968	12.33
764.294	-44.77
764.62	-39.58
764.946	-114.84
765.271	51.26
765.597	87.59
765.923	-75.91
766.248	35.68
766.574	-21.41
766.9	51.26
767.225	-13.63
767.55	14.92
767.876	48.66
768.201	-0.65
768.526	108.35
768.852	66.83
769.177	-24.01
769.502	-88.89
769.827	-104.46
770.152	-75.91
770.477	-70.72
770.802	12.33
771.127	90.18
771.451	-57.74
771.776	22.71
772.101	-55.15
772.425	-91.48
772.75	43.47
773.075	-29.2
773.399	14.92
773.723	-36.98
774.048	33.09
774.372	-60.34
774.696	4.54
775.02	22.71
775.345	43.47
775.669	-11.03
775.993	43.47
776.317	74.61
776.641	51.26
776.965	-47.36
777.288	40.88
777.612	-101.86
777.936	12.33
778.26	-11.03
778.583	33.09
778.907	25.3
779.23	-16.22
779.554	-29.2
779.877	-5.84
780.2	20.11
780.524	-60.34
780.847	7.14
781.17	82.4
781.493	-18.82
781.816	-62.93
782.139	30.49
782.462	35.68
782.785	25.3
783.108	-5.84
783.431	-16.22
783.754	-11.03
784.076	38.28
784.399	64.23
784.722	1.95
785.044	69.42
785.367	-11.03
785.689	-83.7
786.011	-49.96
786.334	-192.7
786.656	-21.41
786.978	-21.41
787.3	14.92
787.622	30.49
787.944	79.8
788.266	61.64
788.588	-42.17
788.91	-24.01
789.232	-11.03
789.554	-8.43
789.876	56.45
790.197	46.07
790.519	-42.17
790.841	-36.98
791.162	79.8
791.483	12.33
791.805	-101.86
792.126	51.26
792.448	22.71
792.769	-49.96
793.09	40.88
793.411	-47.36
793.732	30.49
794.053	43.47
794.374	61.64
794.695	-11.03
795.016	38.28
795.337	-26.6
795.658	20.11
795.978	77.21
796.299	-21.41
796.619	1.95
796.94	22.71
797.261	4.54
797.581	43.47
797.901	-21.41
798.222	-138.2
798.542	-49.96
798.862	110.95
799.182	7.14
799.502	77.21
799.822	-31.79
800.142	-52.55
800.462	33.09
800.782	22.71
801.102	-3.24
801.422	25.3
801.742	-83.7
802.061	14.92
802.381	56.45
802.701	-62.93
803.02	-13.63
803.339	-47.36
803.659	22.71
803.978	-70.72
804.298	97.97
804.617	82.4
804.936	-49.96
805.255	-44.77
805.574	14.92
805.893	-75.91
806.212	35.68
806.531	-112.24
806.85	-55.15
807.169	33.09
807.487	-39.58
807.806	12.33
808.125	22.71
808.443	-3.24
808.762	-101.86
809.08	-101.86
809.399	20.11
809.717	-11.03
810.035	-18.82
810.354	-21.41
810.672	-143.39
810.99	-374.36
811.308	-561.22
811.626	-838.91
811.944	-670.22
812.262	-579.39
812.58	-493.74
812.898	-280.93
813.216	-138.2
813.533	-49.96
813.851	-73.32
814.169	-60.34
814.486	-52.55
814.804	-68.13
815.121	35.68
815.438	-0.65
815.756	9.73
816.073	-5.84
816.39	-34.39
816.707	33.09
817.025	-52.55
817.342	-42.17
817.659	-81.1
817.976	17.52
818.292	-52.55
818.609	-52.55
818.926	14.92
819.243	-101.86
819.559	-195.29
819.876	-5.84
820.193	-11.03
820.509	1.95
820.826	-62.93
821.142	72.02
821.458	-39.58
821.775	77.21
822.091	-18.82
822.407	-31.79
822.723	66.83
823.039	-0.65
823.355	-8.43
823.671	84.99
823.987	25.3
824.303	59.04
824.619	-57.74
824.935	38.28
825.25	-11.03
825.566	1.95
825.881	-29.2
826.197	22.71
826.512	-8.43
826.828	-21.41
827.143	-44.77
827.458	-36.98
827.774	-68.13
828.089	9.73
828.404	-151.17
828.719	-5.84
829.034	-13.63
829.349	-75.91
829.664	-52.55
829.979	-236.82
830.294	-304.29
830.608	-283.53
830.923	-213.46
831.238	-114.84
831.552	-133.01
831.867	48.66
832.181	-86.29
832.496	-39.58
832.81	14.92
833.124	-49.96
833.439	-36.98
833.753	-8.43
834.067	134.3
834.381	33.09
834.695	25.3
835.009	48.66
835.323	61.64
835.637	-0.65
835.951	7.14
836.264	-24.01
836.578	149.88
836.892	30.49
837.205	-26.6
837.519	-13.63
837.832	-18.82
838.146	1.95
838.459	20.11
838.772	-127.82
839.086	74.61
839.399	4.54
839.712	-8.43
840.025	25.3
840.338	-29.2
840.651	69.42
840.964	38.28
841.277	-164.15
841.59	116.14
841.902	43.47
842.215	-70.72
842.528	66.83
842.84	-16.22
843.153	-24.01
843.465	4.54
843.778	43.47
844.09	-13.63
844.403	27.9
844.715	79.8
845.027	33.09
845.339	-81.1
845.651	-5.84
845.963	9.73
846.275	129.11
846.587	-52.55
846.899	27.9
847.211	12.33
847.523	-11.03
847.834	-70.72
848.146	66.83
848.457	82.4
848.769	-0.65
849.08	25.3
849.392	33.09
849.703	-49.96
850.015	20.11
850.326	20.11
850.637	-81.1
850.948	-57.74
851.259	27.9
851.57	35.68
851.881	30.49
852.192	-68.13
852.503	74.61
852.814	-81.1
853.125	-24.01
853.435	-78.51
853.746	-3.24
854.056	17.52
854.367	40.88
854.677	-78.51
854.988	74.61
855.298	40.88
855.609	110.95
855.919	-21.41
856.229	-24.01
856.539	27.9
856.849	139.49
857.159	53.85
857.469	25.3
857.779	66.83
858.089	17.52
858.399	-96.67
858.708	-16.22
859.018	95.38
859.328	38.28
859.637	27.9
859.947	-70.72
860.256	53.85
860.566	-73.32
860.875	-26.6
861.184	56.45
861.494	-91.48
861.803	20.11
862.112	123.92
862.421	84.99
862.73	53.85
863.039	27.9
863.348	-42.17
863.657	14.92
863.965	-42.17
864.274	-24.01
864.583	-0.65
864.891	-26.6
865.2	-75.91
865.509	-62.93
865.817	108.35
866.125	-16.22
866.434	22.71
866.742	56.45
867.05	30.49
867.358	12.33
867.666	64.23
867.975	-18.82
868.283	-3.24
868.59	25.3
868.898	66.83
869.206	46.07
869.514	-3.24
869.822	-3.24
870.129	43.47
870.437	-34.39
870.744	-18.82
871.052	69.42
871.359	149.88
871.667	97.97
871.974	30.49
872.281	61.64
872.589	61.64
872.896	90.18
873.203	1.95
873.51	-83.7
873.817	14.92
874.124	14.92
874.431	-8.43
874.737	59.04
875.044	-78.51
875.351	59.04
875.658	1.95
875.964	69.42
876.271	22.71
876.577	-34.39
876.884	1.95
877.19	-57.74
877.496	-31.79
877.802	30.49
878.109	-184.91
878.415	-39.58
878.721	7.14
879.027	-68.13
879.333	-78.51
879.639	-44.77
879.945	-39.58
880.25	-31.79
880.556	95.38
880.862	-91.48
881.167	-55.15
881.473	-18.82
881.778	-0.65
882.084	20.11
882.389	46.07
882.695	1.95
883	66.83
883.305	-16.22
883.61	97.97
883.915	22.71
884.22	-81.1
884.525	27.9
884.83	1.95
885.135	-34.39
885.44	105.76
885.745	-3.24
886.05	22.71
886.354	4.54
886.659	-44.77
886.963	139.49
887.268	-36.98
887.572	-5.84
887.877	126.52
888.181	-11.03
888.485	7.14
888.789	-39.58
889.093	59.04
889.398	69.42
889.702	108.35
890.006	-11.03
890.309	48.66
890.613	90.18
890.917	-44.77
891.221	33.09
891.525	-130.41
891.828	-21.41
892.132	-36.98
892.435	-94.08
892.739	-5.84
893.042	-39.58
893.345	-0.65
893.649	-127.82
893.952	-104.46
894.255	-65.53
894.558	-65.53
894.861	-26.6
895.164	-65.53
895.467	40.88
895.77	79.8
896.073	-26.6
896.376	12.33
896.678	-24.01
896.981	-16.22
897.284	-75.91
897.586	48.66
897.889	9.73
898.191	-44.77
898.493	-18.82
898.796	-34.39
899.098	-16.22
899.4	4.54
899.702	7.14
900.004	82.4
900.306	-49.96
900.608	27.9
900.91	27.9
901.212	4.54
901.514	87.59
901.816	9.73
902.117	79.8
902.419	53.85
902.721	-34.39
903.022	33.09
903.323	30.49
903.625	72.02
903.926	46.07
904.227	14.92
904.529	14.92
904.83	144.68
905.131	20.11
905.432	22.71
905.733	-8.43
906.034	-18.82
906.335	25.3
906.636	14.92
906.936	-18.82
907.237	-36.98
907.538	-29.2
907.838	33.09
908.139	17.52
908.439	-24.01
908.74	17.52
909.04	33.09
909.34	-24.01
909.641	-11.03
909.941	95.38
910.241	7.14
910.541	-44.77
910.841	-47.36
911.141	-36.98
911.441	77.21
911.741	129.11
912.04	-55.15
912.34	1.95
912.64	-24.01
912.939	12.33
913.239	33.09
913.538	-62.93
913.838	9.73
914.137	-29.2
914.436	-31.79
914.736	-24.01
915.035	-0.65
915.334	30.49
915.633	-68.13
915.932	-16.22
916.231	33.09
916.53	-88.89
916.829	-31.79
917.128	-18.82
917.426	-39.58
917.725	-91.48
918.024	53.85
918.322	113.54
918.621	12.33
918.919	7.14
919.217	12.33
919.516	40.88
919.814	-68.13
920.112	27.9
920.41	64.23
920.709	-36.98
921.007	-52.55
921.305	-34.39
921.602	69.42
921.9	51.26
922.198	-49.96
922.496	25.3
922.794	48.66
923.091	51.26
923.389	-47.36
923.686	9.73
923.984	33.09
924.281	1.95
924.578	46.07
924.876	-34.39
925.173	-52.55
925.47	4.54
925.767	17.52
926.064	-24.01
926.361	7.14
926.658	-68.13
926.955	7.14
927.252	-0.65
927.549	-44.77
927.845	-16.22
928.142	17.52
928.438	-62.93
928.735	56.45
929.031	1.95
929.328	53.85
929.624	59.04
929.92	30.49
930.217	-13.63
930.513	90.18
930.809	64.23
931.105	77.21
931.401	-68.13
931.697	12.33
931.993	-31.79
932.289	35.68
932.584	17.52
932.88	-60.34
933.176	-18.82
933.471	118.73
933.767	38.28
934.062	53.85
934.358	1.95
934.653	69.42
934.948	12.33
935.244	-114.84
935.539	-31.79
935.834	-24.01
936.129	12.33
936.424	48.66
936.719	20.11
937.014	61.64
937.309	79.8
937.603	-24.01
937.898	-18.82
938.193	-36.98
938.487	25.3
938.782	-42.17
939.076	-83.7
939.371	-34.39
939.665	33.09
939.959	-24.01
940.254	-47.36
940.548	14.92
940.842	-18.82
941.136	25.3
941.43	66.83
941.724	43.47
942.018	1.95
942.311	-62.93
942.605	-39.58
942.899	22.71
943.193	12.33
943.486	84.99
943.78	-16.22
944.073	-18.82
944.367	-81.1
944.66	48.66
944.953	84.99
945.246	38.28
945.54	35.68
945.833	-60.34
946.126	7.14
946.419	74.61
946.712	33.09
947.005	-18.82
947.297	-21.41
947.59	72.02
947.883	165.45
948.176	-99.27
948.468	64.23
948.761	4.54
949.053	9.73
949.346	-11.03
949.638	-86.29
949.93	-62.93
950.222	43.47
950.515	-68.13
950.807	-42.17
951.099	-55.15
951.391	46.07
951.683	-52.55
951.975	12.33
952.266	87.59
952.558	66.83
952.85	7.14
953.141	103.16
953.433	14.92
953.725	-34.39
954.016	-3.24
954.307	-18.82
954.599	14.92
954.89	7.14
955.181	-47.36
955.472	14.92
955.763	-8.43
956.055	-18.82
956.346	30.49
956.636	64.23
956.927	59.04
957.218	51.26
957.509	20.11
957.8	-73.32
958.09	-73.32
958.381	-31.79
958.671	-31.79
958.962	14.92
959.252	-47.36
959.542	170.64
959.833	-0.65
960.123	-26.6
960.413	100.57
960.703	-44.77
960.993	-18.82
961.283	30.49
961.573	-3.24
961.863	-31.79
962.153	51.26
962.442	7.14
962.732	66.83
963.022	92.78
963.311	-73.32
963.601	-0.65
963.89	-34.39
964.18	79.8
964.469	30.49
964.758	-21.41
965.047	72.02
965.337	-26.6
965.626	4.54
965.915	-57.74
966.204	4.54
966.493	72.02
966.781	-13.63
967.07	-29.2
967.359	-70.72
967.648	48.66
967.936	9.73
968.225	-44.77
968.513	82.4
968.802	-120.03
969.09	14.92
969.378	-73.32
969.666	95.38
969.955	160.26
970.243	38.28
970.531	64.23
970.819	-125.22
971.107	48.66
971.395	-24.01
971.683	-26.6
971.97	35.68
972.258	-57.74
972.546	-42.17
972.833	-16.22
973.121	48.66
973.408	-39.58
973.696	27.9
973.983	66.83
974.27	-29.2
974.558	97.97
974.845	-81.1
975.132	46.07
975.419	22.71
975.706	20.11
975.993	-29.2
976.28	-156.36
976.566	95.38
976.853	56.45
977.14	-26.6
977.426	40.88
977.713	20.11
978	46.07
978.286	-55.15
978.572	48.66
978.859	46.07
979.145	-52.55
979.431	-44.77
979.717	74.61
980.003	-18.82
980.289	-44.77
980.575	-5.84
980.861	105.76
981.147	-60.34
981.433	-18.82
981.719	-3.24
982.004	-18.82
982.29	-49.96
982.575	-24.01
982.861	22.71
983.146	22.71
983.432	35.68
983.717	95.38
984.002	-26.6
984.287	61.64
984.573	121.33
984.858	1.95
985.143	72.02
985.428	33.09
985.712	9.73
985.997	-13.63
986.282	48.66
986.567	72.02
986.851	84.99
987.136	51.26
987.42	20.11
987.705	33.09
987.989	-31.79
988.274	14.92
988.558	-0.65
988.842	-16.22
989.126	92.78
989.41	-0.65
989.694	-86.29
989.978	-21.41
990.262	-44.77
990.546	4.54
990.83	56.45
991.114	-55.15
991.397	40.88
991.681	-52.55
991.965	12.33
992.248	33.09
992.531	82.4
992.815	-114.84
993.098	-73.32
993.381	-34.39
993.665	-42.17
993.948	-0.65
994.231	-11.03
994.514	-26.6
994.797	53.85
995.08	77.21
995.362	25.3
995.645	9.73
995.928	-75.91
996.211	-94.08
996.493	-13.63
996.776	64.23
997.058	-16.22
997.34	-11.03
997.623	35.68
997.905	-36.98
998.187	25.3
998.469	22.71
998.752	40.88
999.034	33.09
999.316	90.18
999.597	-70.72
999.879	-62.93
1000.161	30.49
1000.443	53.85
1000.725	-57.74
1001.006	43.47
1001.288	-5.84
1001.569	20.11
1001.851	22.71
1002.132	84.99
1002.413	-36.98
1002.694	90.18
1002.976	9.73
1003.257	-5.84
1003.538	-44.77
1003.819	-65.53
1004.1	9.73
1004.381	-36.98
1004.661	-75.91
1004.942	-78.51
1005.223	7.14
1005.504	-83.7
1005.784	1.95
1006.065	48.66
1006.345	74.61
1006.625	-11.03
1006.906	14.92
1007.186	38.28
1007.466	-39.58
1007.746	-99.27
1008.026	9.73
1008.306	-39.58
1008.586	4.54
1008.866	123.92
1009.146	-24.01
1009.426	-52.55
1009.706	20.11
1009.985	-81.1
1010.265	-16.22
1010.544	43.47
1010.824	-11.03
1011.103	25.3
1011.383	1.95
1011.662	22.71
1011.941	-49.96
1012.22	97.97
1012.499	90.18
1012.778	-60.34
1013.057	12.33
1013.336	72.02
1013.615	33.09
1013.894	51.26
1014.173	-96.67
1014.451	30.49
1014.73	51.26
1015.009	-42.17
1015.287	35.68
1015.566	-5.84
1015.844	-62.93
1016.122	-11.03
1016.4	-26.6
1016.679	-60.34
1016.957	-70.72
1017.235	-52.55
1017.513	-52.55
1017.791	-8.43
1018.069	69.42
1018.346	-39.58
1018.624	35.68
1018.902	4.54
1019.179	12.33
1019.457	84.99
1019.735	-16.22
1020.012	95.38
1020.289	1.95
1020.567	1.95
1020.844	1.95
