Data from Subt2_19-07-13-982.txt Node
Date: Wed Feb 22 19:07:13 CST 2023
User: Optics Lab
Spectrometer: FLMS14302
Trigger mode: 0
Integration Time (sec): 1.000000E-1
Scans to average: 1
Electric dark correction enabled: true
Nonlinearity correction enabled: false
Boxcar width: 0
XAxis mode: Wavelengths
Number of Pixels in Spectrum: 2048
>>>>>Begin Spectral Data<<<<<
338.578	-3.08
338.961	-3.08
339.343	-3.08
339.725	33.25
340.108	15.08
340.49	-39.42
340.872	54.01
341.254	-47.2
341.636	-5.68
342.018	7.3
342.4	-62.77
342.782	-0.49
343.164	66.99
343.546	-10.87
343.928	7.3
344.309	-70.56
344.691	56.61
345.073	103.32
345.455	-34.22
345.836	-23.84
346.218	-0.49
346.599	-54.99
346.981	-75.75
347.362	-3.08
347.744	-13.46
348.125	-39.42
348.506	7.3
348.888	-44.61
349.269	38.44
349.65	2.11
350.031	82.56
350.413	-8.27
350.794	-18.65
351.175	38.44
351.556	-21.25
351.937	-13.46
352.318	4.7
352.698	15.08
353.079	-86.13
353.46	-26.44
353.841	-49.8
354.222	-83.53
354.602	-117.27
354.983	90.35
355.363	-44.61
355.744	-10.87
356.124	79.97
356.505	33.25
356.885	38.44
357.266	-34.22
357.646	54.01
358.026	12.49
358.407	15.08
358.787	64.39
359.167	7.3
359.547	-119.87
359.927	35.85
360.307	2.11
360.687	61.8
361.067	33.25
361.447	-13.46
361.827	22.87
362.207	15.08
362.587	4.7
362.966	-5.68
363.346	-18.65
363.726	66.99
364.105	20.28
364.485	-23.84
364.865	-70.56
365.244	-47.2
365.624	-54.99
366.003	48.82
366.382	-70.56
366.762	51.42
367.141	28.06
367.52	-8.27
367.899	-86.13
368.279	46.23
368.658	-18.65
369.037	12.49
369.416	-10.87
369.795	-8.27
370.174	41.04
370.553	9.89
370.932	9.89
371.311	-47.2
371.689	35.85
372.068	28.06
372.447	-3.08
372.825	-143.22
373.204	-21.25
373.583	-34.22
373.961	69.58
374.34	2.11
374.718	-88.72
375.097	66.99
375.475	-3.08
375.853	-34.22
376.232	-0.49
376.61	-10.87
376.988	38.44
377.366	-18.65
377.744	-34.22
378.122	7.3
378.5	-47.2
378.878	-91.32
379.256	-62.77
379.634	-18.65
380.012	-3.08
380.39	-10.87
380.768	-93.92
381.145	-36.82
381.523	51.42
381.901	163.01
382.278	22.87
382.656	-21.25
383.033	-52.39
383.411	103.32
383.788	-91.32
384.166	-99.11
384.543	48.82
384.921	92.94
385.298	121.49
385.675	35.85
386.052	-47.2
386.429	28.06
386.806	-21.25
387.184	2.11
387.561	92.94
387.938	-42.01
388.314	2.11
388.691	-70.56
389.068	87.75
389.445	-62.77
389.822	-60.18
390.198	-10.87
390.575	-52.39
390.952	-112.08
391.328	-52.39
391.705	-16.06
392.081	9.89
392.458	-44.61
392.834	15.08
393.211	-10.87
393.587	25.47
393.963	-125.06
394.34	-23.84
394.716	-96.51
395.092	-49.8
395.468	-0.49
395.844	30.66
396.22	17.68
396.596	-3.08
396.972	30.66
397.348	-86.13
397.724	35.85
398.1	7.3
398.476	22.87
398.851	54.01
399.227	-127.65
399.603	48.82
399.978	-29.03
400.354	41.04
400.729	-36.82
401.105	-60.18
401.48	33.25
401.856	-21.25
402.231	33.25
402.606	-5.68
402.982	-88.72
403.357	-78.34
403.732	-57.58
404.107	82.56
404.482	22.87
404.857	-0.49
405.232	-8.27
405.607	100.73
405.982	46.23
406.357	-10.87
406.732	-29.03
407.107	-171.77
407.482	-54.99
407.856	-60.18
408.231	-65.37
408.606	-21.25
408.98	-78.34
409.355	48.82
409.729	-21.25
410.104	7.3
410.478	-3.08
410.852	4.7
411.227	-34.22
411.601	9.89
411.975	-44.61
412.35	38.44
412.724	-62.77
413.098	7.3
413.472	30.66
413.846	-101.7
414.22	-65.37
414.594	61.8
414.968	33.25
415.342	-49.8
415.715	51.42
416.089	7.3
416.463	-21.25
416.837	-73.15
417.21	-52.39
417.584	7.3
417.957	-18.65
418.331	-10.87
418.704	17.68
419.078	-75.75
419.451	28.06
419.824	-36.82
420.198	-36.82
420.571	-23.84
420.944	90.35
421.317	-23.84
421.69	15.08
422.064	20.28
422.437	-54.99
422.81	-122.46
423.182	-23.84
423.555	-29.03
423.928	33.25
424.301	-18.65
424.674	20.28
425.047	-44.61
425.419	-47.2
425.792	-10.87
426.164	51.42
426.537	-49.8
426.91	-54.99
427.282	54.01
427.654	9.89
428.027	4.7
428.399	-0.49
428.771	-13.46
429.144	-26.44
429.516	72.18
429.888	-57.58
430.26	9.89
430.632	-106.89
431.004	15.08
431.376	15.08
431.748	64.39
432.12	-65.37
432.492	-29.03
432.864	-5.68
433.236	-49.8
433.607	-57.58
433.979	-70.56
434.351	30.66
434.722	-5.68
435.094	41.04
435.465	-26.44
435.837	144.85
436.208	305.75
436.58	233.08
436.951	82.56
437.322	-23.84
437.693	-54.99
438.065	15.08
438.436	-49.8
438.807	46.23
439.178	-8.27
439.549	-34.22
439.92	137.06
440.291	46.23
440.662	41.04
441.033	155.23
441.403	43.63
441.774	-42.01
442.145	25.47
442.516	9.89
442.886	69.58
443.257	82.56
443.627	-18.65
443.998	12.49
444.368	7.3
444.739	48.82
445.109	74.78
445.479	15.08
445.85	118.89
446.22	-39.42
446.59	12.49
446.96	35.85
447.33	25.47
447.7	54.01
448.07	56.61
448.44	25.47
448.81	46.23
449.18	82.56
449.55	56.61
449.92	54.01
450.29	-13.46
450.659	30.66
451.029	124.08
451.399	48.82
451.768	108.51
452.138	54.01
452.507	87.75
452.877	157.82
453.246	152.63
453.615	186.37
453.985	98.13
454.354	152.63
454.723	92.94
455.092	137.06
455.462	61.8
455.831	121.49
456.2	147.44
456.569	220.11
456.938	139.66
457.307	168.2
457.675	163.01
458.044	170.8
458.413	150.04
458.782	137.06
459.15	207.13
459.519	121.49
459.888	79.97
460.256	87.75
460.625	175.99
460.993	92.94
461.362	95.54
461.73	126.68
462.098	103.32
462.467	90.35
462.835	116.3
463.203	212.32
463.571	108.51
463.939	87.75
464.307	17.68
464.675	72.18
465.043	20.28
465.411	48.82
465.779	105.92
466.147	121.49
466.515	61.8
466.883	137.06
467.25	168.2
467.618	118.89
467.986	126.68
468.353	163.01
468.721	-0.49
469.088	77.37
469.456	98.13
469.823	129.28
470.19	22.87
470.558	54.01
470.925	121.49
471.292	48.82
471.659	201.94
472.027	129.28
472.394	201.94
472.761	116.3
473.128	69.58
473.495	111.11
473.862	41.04
474.228	9.89
474.595	35.85
474.962	163.01
475.329	105.92
475.695	116.3
476.062	69.58
476.429	54.01
476.795	105.92
477.162	87.75
477.528	20.28
477.895	74.78
478.261	139.66
478.627	139.66
478.994	72.18
479.36	116.3
479.726	35.85
480.092	41.04
480.458	-21.25
480.824	41.04
481.19	-0.49
481.556	61.8
481.922	35.85
482.288	98.13
482.654	175.99
483.02	87.75
483.385	160.42
483.751	92.94
484.117	142.25
484.482	7.3
484.848	111.11
485.213	144.85
485.579	175.99
485.944	38.44
486.31	121.49
486.675	95.54
487.04	160.42
487.406	92.94
487.771	225.3
488.136	235.68
488.501	98.13
488.866	194.16
489.231	111.11
489.596	79.97
489.961	246.06
490.326	157.82
490.691	54.01
491.056	54.01
491.42	64.39
491.785	95.54
492.15	139.66
492.514	217.51
492.879	155.23
493.243	92.94
493.608	191.56
493.972	7.3
494.337	155.23
494.701	-47.2
495.065	66.99
495.43	61.8
495.794	33.25
496.158	77.37
496.522	79.97
496.886	38.44
497.25	-13.46
497.614	66.99
497.978	152.63
498.342	64.39
498.706	54.01
499.07	95.54
499.433	38.44
499.797	100.73
500.161	129.28
500.524	51.42
500.888	144.85
501.251	137.06
501.615	28.06
501.978	-21.25
502.342	59.2
502.705	157.82
503.068	139.66
503.432	147.44
503.795	61.8
504.158	152.63
504.521	150.04
504.884	137.06
505.247	77.37
505.61	9.89
505.973	131.87
506.336	116.3
506.699	66.99
507.062	33.25
507.424	54.01
507.787	54.01
508.15	61.8
508.512	129.28
508.875	72.18
509.238	82.56
509.6	170.8
509.962	116.3
510.325	33.25
510.687	137.06
511.049	-8.27
511.412	209.73
511.774	30.66
512.136	170.8
512.498	118.89
512.86	103.32
513.222	15.08
513.584	111.11
513.946	-18.65
514.308	-62.77
514.67	95.54
515.032	74.78
515.393	121.49
515.755	191.56
516.117	77.37
516.478	118.89
516.84	144.85
517.201	121.49
517.563	142.25
517.924	134.47
518.286	4.7
518.647	134.47
519.008	90.35
519.37	69.58
519.731	118.89
520.092	-0.49
520.453	98.13
520.814	90.35
521.175	225.3
521.536	196.75
521.897	181.18
522.258	43.63
522.619	95.54
522.979	111.11
523.34	160.42
523.701	92.94
524.061	56.61
524.422	72.18
524.783	220.11
525.143	170.8
525.504	98.13
525.864	79.97
526.224	35.85
526.585	9.89
526.945	108.51
527.305	51.42
527.665	152.63
528.025	139.66
528.385	103.32
528.746	66.99
529.106	144.85
529.465	137.06
529.825	170.8
530.185	95.54
530.545	51.42
530.905	144.85
531.264	144.85
531.624	41.04
531.984	103.32
532.343	-3.08
532.703	77.37
533.062	64.39
533.422	142.25
533.781	74.78
534.141	90.35
534.5	69.58
534.859	129.28
535.218	28.06
535.577	66.99
535.937	111.11
536.296	116.3
536.655	155.23
537.014	173.39
537.373	129.28
537.731	131.87
538.09	129.28
538.449	139.66
538.808	152.63
539.166	66.99
539.525	214.92
539.884	74.78
540.242	108.51
540.601	214.92
540.959	186.37
541.318	163.01
541.676	217.51
542.034	323.92
542.393	401.78
542.751	456.28
543.109	422.54
543.467	539.32
543.825	378.42
544.183	406.97
544.541	453.68
544.899	484.82
545.257	378.42
545.615	352.47
545.973	414.75
546.331	329.11
546.688	443.3
547.046	323.92
547.404	212.32
547.761	261.63
548.119	43.63
548.476	214.92
548.834	207.13
549.191	160.42
549.548	150.04
549.906	217.51
550.263	142.25
550.62	157.82
550.977	95.54
551.334	186.37
551.691	105.92
552.048	126.68
552.405	191.56
552.762	186.37
553.119	186.37
553.476	108.51
553.833	139.66
554.189	77.37
554.546	181.18
554.903	113.7
555.259	150.04
555.616	12.49
555.972	163.01
556.329	103.32
556.685	129.28
557.042	129.28
557.398	72.18
557.754	59.2
558.11	35.85
558.467	150.04
558.823	98.13
559.179	103.32
559.535	38.44
559.891	38.44
560.247	90.35
560.603	118.89
560.958	9.89
561.314	48.82
561.67	74.78
562.026	64.39
562.381	100.73
562.737	54.01
563.092	43.63
563.448	87.75
563.803	124.08
564.159	100.73
564.514	25.47
564.869	56.61
565.225	111.11
565.58	-26.44
565.935	64.39
566.29	105.92
566.645	46.23
567	64.39
567.355	82.56
567.71	82.56
568.065	46.23
568.42	30.66
568.775	139.66
569.13	90.35
569.484	41.04
569.839	15.08
570.193	38.44
570.548	111.11
570.903	111.11
571.257	87.75
571.611	118.89
571.966	64.39
572.32	-3.08
572.674	-3.08
573.029	28.06
573.383	-29.03
573.737	87.75
574.091	33.25
574.445	59.2
574.799	183.78
575.153	56.61
575.507	79.97
575.861	92.94
576.215	90.35
576.568	105.92
576.922	-52.39
577.276	-39.42
577.629	43.63
577.983	28.06
578.336	30.66
578.69	-62.77
579.043	118.89
579.397	191.56
579.75	-8.27
580.103	56.61
580.456	92.94
580.81	54.01
581.163	-39.42
581.516	41.04
581.869	54.01
582.222	64.39
582.575	-31.63
582.928	-10.87
583.281	79.97
583.633	-67.96
583.986	77.37
584.339	-70.56
584.691	-8.27
585.044	-70.56
585.397	111.11
585.749	87.75
586.102	51.42
586.454	-0.49
586.806	41.04
587.159	-101.7
587.511	-145.82
587.863	-148.42
588.215	-75.75
588.567	-148.42
588.92	-151.01
589.272	-44.61
589.624	-86.13
589.975	-65.37
590.327	-117.27
590.679	-166.58
591.031	-80.94
591.383	-96.51
591.734	-174.37
592.086	-112.08
592.438	-161.39
592.789	-140.63
593.141	-298.94
593.492	-317.11
593.844	-311.92
594.195	-244.44
594.546	-226.27
594.898	-192.53
595.249	-169.18
595.6	-42.01
595.951	-122.46
596.302	-135.44
596.653	-151.01
597.004	-117.27
597.355	-148.42
597.706	-109.49
598.057	-127.65
598.408	-135.44
598.758	-288.56
599.109	-376.8
599.46	-379.39
599.81	-511.75
600.161	-415.73
600.511	-540.3
600.862	-366.42
601.212	-340.46
601.562	-288.56
601.913	-270.39
602.263	-166.58
602.613	-158.8
602.963	-99.11
603.313	-119.87
603.663	-161.39
604.013	-166.58
604.363	-143.22
604.713	-143.22
605.063	-145.82
605.413	-272.99
605.763	-283.37
606.112	-301.53
606.462	-322.3
606.812	-324.89
607.161	-392.37
607.511	-423.51
607.86	-555.87
608.21	-641.51
608.559	-677.84
608.908	-1038.58
609.258	-1313.68
609.607	-1443.44
609.956	-2253.15
610.305	-3247.13
610.654	-5468.66
611.003	-9667.76
611.352	-14710.31
611.701	-17982.9
612.05	-17367.83
612.399	-15011.35
612.748	-11920.42
613.097	-9496.47
613.445	-7908.18
613.794	-6434.09
614.143	-5855.35
614.491	-5432.32
614.84	-5154.63
615.188	-4749.78
615.537	-4287.82
615.885	-3709.08
616.233	-3060.27
616.581	-2613.89
616.93	-2222.01
617.278	-1993.63
617.626	-1809.37
617.974	-1645.87
618.322	-1469.39
618.67	-1469.39
619.018	-1568.01
619.366	-1638.08
619.714	-1500.54
620.061	-1679.61
620.409	-1674.42
620.757	-1770.44
621.104	-1920.96
621.452	-1856.08
621.799	-1645.87
622.147	-1741.89
622.494	-1625.11
622.842	-1638.08
623.189	-1557.63
623.536	-1510.92
623.884	-1484.96
624.231	-1448.63
624.578	-1516.11
624.925	-1469.39
625.272	-1430.46
625.619	-1331.84
625.966	-1409.7
626.313	-1241.01
626.66	-1196.89
627.007	-1251.39
627.353	-1176.13
627.7	-1111.25
628.047	-1316.27
628.393	-1139.8
628.74	-1100.87
629.086	-1212.46
629.433	-1186.51
629.779	-1381.15
630.125	-1510.92
630.472	-1744.49
630.818	-2211.63
631.164	-2790.37
631.51	-3068.06
631.857	-3081.04
632.203	-2541.23
632.549	-1861.27
632.895	-1339.63
633.24	-981.49
633.586	-820.58
633.932	-519.53
634.278	-418.32
634.624	-394.96
634.969	-296.34
635.315	-202.92
635.66	-260.01
636.006	-278.18
636.351	-226.27
636.697	-189.94
637.042	-91.32
637.388	-44.61
637.733	51.42
638.078	331.7
638.423	3656.21
638.768	8911.57
639.113	9542.21
639.458	11963.57
639.803	15007.79
640.148	10505.04
640.493	6243.66
640.838	3923.52
641.183	2350.8
641.527	1138.82
641.872	544.51
642.217	116.3
642.561	12.49
642.906	-161.39
643.25	-106.89
643.595	-213.3
643.939	-306.72
644.284	-301.53
644.628	-117.27
644.972	-247.03
645.316	-228.87
645.66	-260.01
646.004	-278.18
646.348	-189.94
646.692	-317.11
647.036	-265.2
647.38	-260.01
647.724	-306.72
648.068	-236.65
648.412	-275.58
648.755	-241.84
649.099	-358.63
649.443	-247.03
649.786	-400.15
650.13	-423.51
650.473	-786.84
650.816	-1025.61
651.16	-1048.96
651.503	-921.8
651.846	-779.06
652.189	-576.63
652.533	-431.3
652.876	-465.03
653.219	-467.63
653.562	-490.99
653.905	-462.44
654.247	-563.65
654.59	-337.87
654.933	-337.87
655.276	-215.89
655.619	-202.92
655.961	-143.22
656.304	-218.49
656.646	-119.87
656.989	-208.11
657.331	-52.39
657.674	-249.63
658.016	-210.7
658.358	-223.68
658.701	-234.06
659.043	-189.94
659.385	-260.01
659.727	-184.75
660.069	-202.92
660.411	-176.96
660.753	-86.13
661.095	-140.63
661.437	-130.25
661.778	-192.53
662.12	-327.49
662.462	-428.7
662.804	-693.42
663.145	-615.56
663.487	-467.63
663.828	-478.01
664.17	-459.84
664.511	-431.3
664.852	-376.8
665.194	-366.42
665.535	-244.44
665.876	-163.99
666.217	-138.03
666.558	-179.56
666.899	-304.13
667.24	-228.87
667.581	-285.96
667.922	-200.32
668.263	-236.65
668.604	-288.56
668.944	-298.94
669.285	-197.72
669.626	-309.32
669.966	-182.15
670.307	-270.39
670.647	-182.15
670.988	-208.11
671.328	-130.25
671.669	-179.56
672.009	-293.75
672.349	-125.06
672.689	-127.65
673.029	-143.22
673.369	-101.7
673.71	-304.13
674.049	-145.82
674.389	-184.75
674.729	-223.68
675.069	-114.68
675.409	-158.8
675.749	-197.72
676.088	-88.72
676.428	-60.18
676.768	-145.82
677.107	-241.84
677.447	-218.49
677.786	-49.8
678.125	-57.58
678.465	-169.18
678.804	-138.03
679.143	-285.96
679.482	-213.3
679.821	-101.7
680.161	-221.08
680.5	-132.84
680.839	-151.01
681.177	-272.99
681.516	-176.96
681.855	-200.32
682.194	-78.34
682.533	-148.42
682.871	-205.51
683.21	-163.99
683.549	-174.37
683.887	-153.61
684.225	-122.46
684.564	-57.58
684.902	-151.01
685.241	-135.44
685.579	-99.11
685.917	-67.96
686.255	-174.37
686.593	-226.27
686.931	-197.72
687.269	-309.32
687.607	-498.77
687.945	-488.39
688.283	-529.92
688.621	-542.89
688.959	-400.15
689.296	-415.73
689.634	-301.53
689.972	-239.25
690.309	-184.75
690.647	-156.2
690.984	-174.37
691.322	-96.51
691.659	-189.94
691.996	-73.15
692.333	-5.68
692.671	-145.82
693.008	-179.56
693.345	-143.22
693.682	-337.87
694.019	-441.68
694.356	-288.56
694.693	-387.18
695.03	-322.3
695.366	-257.42
695.703	-187.34
696.04	-31.63
696.376	-231.46
696.713	-226.27
697.05	-104.3
697.386	-101.7
697.722	-62.77
698.059	-29.03
698.395	35.85
698.731	-60.18
699.068	-36.82
699.404	-57.58
699.74	-42.01
700.076	-16.06
700.412	-62.77
700.748	-78.34
701.084	-96.51
701.42	-16.06
701.756	7.3
702.091	-125.06
702.427	-29.03
702.763	-117.27
703.098	-47.2
703.434	-39.42
703.769	-143.22
704.105	-114.68
704.44	-163.99
704.776	-174.37
705.111	-260.01
705.446	-239.25
705.781	-405.34
706.117	-493.58
706.452	-638.92
706.787	-828.37
707.122	-1241.01
707.457	-1191.7
707.792	-1295.51
708.126	-1233.23
708.461	-1028.2
708.796	-1103.46
709.131	-1453.82
709.465	-1573.2
709.8	-1557.63
710.134	-1217.65
710.469	-1041.18
710.803	-823.18
711.138	-631.13
711.472	-516.94
711.806	-688.23
712.14	-812.8
712.475	-1191.7
712.809	-1318.87
713.143	-1163.15
713.477	-1041.18
713.811	-786.84
714.145	-675.25
714.479	-356.03
714.812	-265.2
715.146	-314.51
715.48	-156.2
715.814	-135.44
716.147	-91.32
716.481	-67.96
716.814	-75.75
717.148	-5.68
717.481	30.66
717.814	-0.49
718.148	-119.87
718.481	-91.32
718.814	-8.27
719.147	7.3
719.48	-91.32
719.813	-117.27
720.146	-21.25
720.479	-16.06
720.812	12.49
721.145	-67.96
721.478	7.3
721.81	-106.89
722.143	-21.25
722.476	-26.44
722.808	-10.87
723.141	-86.13
723.473	-60.18
723.806	7.3
724.138	15.08
724.47	-78.34
724.803	2.11
725.135	-16.06
725.467	-3.08
725.799	-0.49
726.131	-73.15
726.463	-125.06
726.795	7.3
727.127	2.11
727.459	-5.68
727.791	-73.15
728.122	64.39
728.454	12.49
728.786	-26.44
729.117	-18.65
729.449	-80.94
729.78	-26.44
730.112	-47.2
730.443	-16.06
730.774	9.89
731.106	-67.96
731.437	92.94
731.768	-10.87
732.099	-39.42
732.43	2.11
732.761	-67.96
733.092	-171.77
733.423	-80.94
733.754	-31.63
734.085	-26.44
734.416	4.7
734.746	-44.61
735.077	-67.96
735.407	-65.37
735.738	-83.53
736.068	22.87
736.399	-96.51
736.729	-44.61
737.06	-3.08
737.39	-5.68
737.72	20.28
738.05	-112.08
738.38	7.3
738.71	12.49
739.041	-34.22
739.37	-47.2
739.7	20.28
740.03	54.01
740.36	-16.06
740.69	-3.08
741.02	-39.42
741.349	-91.32
741.679	9.89
742.008	-5.68
742.338	-18.65
742.667	-52.39
742.997	-16.06
743.326	-52.39
743.655	-75.75
743.984	41.04
744.314	-153.61
744.643	-26.44
744.972	-31.63
745.301	-153.61
745.63	-47.2
745.959	-16.06
746.288	-60.18
746.616	-109.49
746.945	4.7
747.274	12.49
747.603	-29.03
747.931	-5.68
748.26	-54.99
748.588	66.99
748.917	46.23
749.245	20.28
749.573	7.3
749.902	-70.56
750.23	54.01
750.558	-31.63
750.886	-67.96
751.214	-23.84
751.542	-36.82
751.87	-73.15
752.198	-44.61
752.526	-13.46
752.854	-65.37
753.182	12.49
753.509	-96.51
753.837	-65.37
754.165	33.25
754.492	-54.99
754.82	15.08
755.147	74.78
755.474	-29.03
755.802	-36.82
756.129	105.92
756.456	-10.87
756.783	15.08
757.111	-26.44
757.438	-73.15
757.765	-42.01
758.092	-5.68
758.418	-8.27
758.745	-158.8
759.072	-44.61
759.399	-158.8
759.726	-223.68
760.052	-394.96
760.379	-454.65
760.705	-594.8
761.032	-459.84
761.358	-376.8
761.685	-283.37
762.011	-202.92
762.337	-158.8
762.663	-101.7
762.99	-23.84
763.316	59.2
763.642	-5.68
763.968	-29.03
764.294	-78.34
764.62	-122.46
764.946	-96.51
765.271	43.63
765.597	-16.06
765.923	-67.96
766.248	-52.39
766.574	43.63
766.9	61.8
767.225	15.08
767.55	-8.27
767.876	-26.44
768.201	-21.25
768.526	-49.8
768.852	7.3
769.177	-88.72
769.502	-44.61
769.827	-122.46
770.152	-119.87
770.477	-169.18
770.802	-104.3
771.127	64.39
771.451	-5.68
771.776	87.75
772.101	-8.27
772.425	-67.96
772.75	4.7
773.075	20.28
773.399	9.89
773.723	-67.96
774.048	28.06
774.372	22.87
774.696	-106.89
775.02	-65.37
775.345	-54.99
775.669	90.35
775.993	-67.96
776.317	2.11
776.641	12.49
776.965	-18.65
777.288	-44.61
777.612	-127.65
777.936	35.85
778.26	-5.68
778.583	56.61
778.907	48.82
779.23	-34.22
779.554	-153.61
779.877	12.49
780.2	-67.96
780.524	-127.65
780.847	17.68
781.17	-5.68
781.493	-88.72
781.816	-109.49
782.139	-54.99
782.462	2.11
782.785	-117.27
783.108	-62.77
783.431	-8.27
783.754	2.11
784.076	-52.39
784.399	2.11
784.722	-60.18
785.044	41.04
785.367	46.23
785.689	-0.49
786.011	-52.39
786.334	-197.72
786.656	-36.82
786.978	-18.65
787.3	-0.49
787.622	-29.03
787.944	33.25
788.266	43.63
788.588	51.42
788.91	4.7
789.232	35.85
789.554	-16.06
789.876	4.7
790.197	9.89
790.519	-75.75
790.841	-18.65
791.162	2.11
791.483	28.06
791.805	-44.61
792.126	38.44
792.448	-73.15
792.769	-114.68
793.09	-39.42
793.411	28.06
793.732	33.25
794.053	-5.68
794.374	-29.03
794.695	30.66
795.016	-13.46
795.337	-21.25
795.658	-5.68
795.978	56.61
796.299	-67.96
796.619	-8.27
796.94	59.2
797.261	-44.61
797.581	-36.82
797.901	-62.77
798.222	-62.77
798.542	-23.84
798.862	43.63
799.182	-29.03
799.502	15.08
799.822	-36.82
800.142	-101.7
800.462	-26.44
800.782	-57.58
801.102	15.08
801.422	64.39
801.742	-47.2
802.061	-62.77
802.381	-0.49
802.701	-29.03
803.02	-21.25
803.339	-112.08
803.659	-0.49
803.978	-47.2
804.298	-62.77
804.617	30.66
804.936	-21.25
805.255	-78.34
805.574	-52.39
805.893	-73.15
806.212	-10.87
806.531	-73.15
806.85	-67.96
807.169	-3.08
807.487	-13.46
807.806	-91.32
808.125	35.85
808.443	-10.87
808.762	-80.94
809.08	-80.94
809.399	-16.06
809.717	-0.49
810.035	-54.99
810.354	-109.49
810.672	-182.15
810.99	-387.18
811.308	-566.25
811.626	-781.65
811.944	-729.75
812.262	-574.03
812.58	-496.18
812.898	-278.18
813.216	-215.89
813.533	-163.99
813.851	-80.94
814.169	-42.01
814.486	30.66
814.804	-57.58
815.121	56.61
815.438	-42.01
815.756	-23.84
816.073	-114.68
816.39	-117.27
816.707	-31.63
817.025	2.11
817.342	17.68
817.659	-70.56
817.976	-3.08
818.292	-86.13
818.609	4.7
818.926	-44.61
819.243	-145.82
819.559	-205.51
819.876	-60.18
820.193	-112.08
820.509	-65.37
820.826	-44.61
821.142	46.23
821.458	-52.39
821.775	-21.25
822.091	-29.03
822.407	-60.18
822.723	56.61
823.039	2.11
823.355	-16.06
823.671	-31.63
823.987	-16.06
824.303	28.06
824.619	-36.82
824.935	33.25
825.25	-23.84
825.566	61.8
825.881	-34.22
826.197	-73.15
826.512	-109.49
826.828	33.25
827.143	-125.06
827.458	-49.8
827.774	-60.18
828.089	-26.44
828.404	-176.96
828.719	4.7
829.034	-31.63
829.349	-42.01
829.664	-101.7
829.979	-221.08
830.294	-337.87
830.608	-221.08
830.923	-104.3
831.238	-135.44
831.552	-60.18
831.867	-16.06
832.181	-158.8
832.496	-3.08
832.81	2.11
833.124	-52.39
833.439	38.44
833.753	-39.42
834.067	-8.27
834.381	35.85
834.695	-34.22
835.009	-39.42
835.323	-10.87
835.637	-36.82
835.951	59.2
836.264	12.49
836.578	72.18
836.892	20.28
837.205	17.68
837.519	-18.65
837.832	-73.15
838.146	22.87
838.459	33.25
838.772	-86.13
839.086	77.37
839.399	-29.03
839.712	-21.25
840.025	-16.06
840.338	-106.89
840.651	17.68
840.964	-0.49
841.277	-125.06
841.59	147.44
841.902	59.2
842.215	22.87
842.528	30.66
842.84	-80.94
843.153	-0.49
843.465	17.68
843.778	4.7
844.09	-39.42
844.403	20.28
844.715	100.73
845.027	-60.18
845.339	-3.08
845.651	46.23
845.963	9.89
846.275	48.82
846.587	35.85
846.899	17.68
847.211	-18.65
847.523	-5.68
847.834	-29.03
848.146	-52.39
848.457	-8.27
848.769	-16.06
849.08	-16.06
849.392	56.61
849.703	12.49
850.015	-16.06
850.326	-5.68
850.637	-109.49
850.948	-78.34
851.259	15.08
851.57	-47.2
851.881	69.58
852.192	-52.39
852.503	15.08
852.814	-62.77
853.125	-34.22
853.435	-18.65
853.746	9.89
854.056	-70.56
854.367	28.06
854.677	-112.08
854.988	72.18
855.298	-16.06
855.609	82.56
855.919	-8.27
856.229	-88.72
856.539	51.42
856.849	131.87
857.159	85.16
857.469	-31.63
857.779	-3.08
858.089	-18.65
858.399	-49.8
858.708	-52.39
859.018	59.2
859.328	17.68
859.637	-99.11
859.947	-83.53
860.256	35.85
860.566	2.11
860.875	-60.18
861.184	22.87
861.494	-88.72
861.803	30.66
862.112	46.23
862.421	-16.06
862.73	66.99
863.039	38.44
863.348	38.44
863.657	-60.18
863.965	-119.87
864.274	-44.61
864.583	-65.37
864.891	-44.61
865.2	-52.39
865.509	-10.87
865.817	12.49
866.125	12.49
866.434	54.01
866.742	-5.68
867.05	46.23
867.358	35.85
867.666	-0.49
867.975	-5.68
868.283	35.85
868.59	41.04
868.898	15.08
869.206	-8.27
869.514	28.06
869.822	-47.2
870.129	4.7
870.437	-62.77
870.744	-5.68
871.052	-3.08
871.359	85.16
871.667	35.85
871.974	-10.87
872.281	-42.01
872.589	12.49
872.896	30.66
873.203	25.47
873.51	-42.01
873.817	-5.68
874.124	-0.49
874.431	-49.8
874.737	-8.27
875.044	-75.75
875.351	54.01
875.658	-49.8
875.964	-5.68
876.271	46.23
876.577	-60.18
876.884	66.99
877.19	-161.39
877.496	-80.94
877.802	-47.2
878.109	-151.01
878.415	-34.22
878.721	-21.25
879.027	-47.2
879.333	-31.63
879.639	-70.56
879.945	-29.03
880.25	-16.06
880.556	59.2
880.862	-65.37
881.167	4.7
881.473	-47.2
881.778	-62.77
882.084	-3.08
882.389	-23.84
882.695	4.7
883	87.75
883.305	7.3
883.61	-34.22
883.915	-23.84
884.22	-3.08
884.525	-39.42
884.83	-70.56
885.135	-8.27
885.44	69.58
885.745	-3.08
886.05	30.66
886.354	30.66
886.659	-31.63
886.963	126.68
887.268	22.87
887.572	22.87
887.877	28.06
888.181	-31.63
888.485	-26.44
888.789	-52.39
889.093	-26.44
889.398	-3.08
889.702	-0.49
890.006	28.06
890.309	15.08
890.613	35.85
890.917	-44.61
891.221	-39.42
891.525	-60.18
891.828	-39.42
892.132	-60.18
892.435	-174.37
892.739	-10.87
893.042	-47.2
893.345	-83.53
893.649	-109.49
893.952	-130.25
894.255	-93.92
894.558	-80.94
894.861	-109.49
895.164	-130.25
895.467	-42.01
895.77	131.87
896.073	-10.87
896.376	-18.65
896.678	25.47
896.981	-52.39
897.284	-106.89
897.586	17.68
897.889	-36.82
898.191	-5.68
898.493	-29.03
898.796	17.68
899.098	-23.84
899.4	20.28
899.702	-10.87
900.004	61.8
900.306	-75.75
900.608	-29.03
900.91	22.87
901.212	-93.92
901.514	-29.03
901.816	12.49
902.117	4.7
902.419	51.42
902.721	-29.03
903.022	-52.39
903.323	-73.15
903.625	48.82
903.926	33.25
904.227	46.23
904.529	-39.42
904.83	103.32
905.131	2.11
905.432	124.08
905.733	-5.68
906.034	-83.53
906.335	15.08
906.636	-42.01
906.936	-47.2
907.237	-104.3
907.538	-73.15
907.838	-36.82
908.139	38.44
908.439	28.06
908.74	-34.22
909.04	51.42
909.34	7.3
909.641	17.68
909.941	33.25
910.241	12.49
910.541	-99.11
910.841	-44.61
911.141	-101.7
911.441	46.23
911.741	139.66
912.04	-67.96
912.34	28.06
912.64	-52.39
912.939	-23.84
913.239	2.11
913.538	-132.84
913.838	-18.65
914.137	-39.42
914.436	17.68
914.736	-73.15
915.035	4.7
915.334	20.28
915.633	-52.39
915.932	-44.61
916.231	-13.46
916.53	-83.53
916.829	-60.18
917.128	20.28
917.426	33.25
917.725	-34.22
918.024	85.16
918.322	20.28
918.621	-104.3
918.919	-31.63
919.217	-44.61
919.516	9.89
919.814	-18.65
920.112	35.85
920.41	64.39
920.709	-34.22
921.007	12.49
921.305	-67.96
921.602	-16.06
921.9	20.28
922.198	-91.32
922.496	61.8
922.794	61.8
923.091	-70.56
923.389	-18.65
923.686	-21.25
923.984	-16.06
924.281	-39.42
924.578	-21.25
924.876	-67.96
925.173	-0.49
925.47	9.89
925.767	46.23
926.064	-49.8
926.361	-10.87
926.658	-73.15
926.955	-10.87
927.252	12.49
927.549	-62.77
927.845	98.13
928.142	-10.87
928.438	25.47
928.735	46.23
929.031	33.25
929.328	28.06
929.624	-13.46
929.92	9.89
930.217	12.49
930.513	4.7
930.809	59.2
931.105	2.11
931.401	-23.84
931.697	-78.34
931.993	-29.03
932.289	-39.42
932.584	-125.06
932.88	-106.89
933.176	-39.42
933.471	82.56
933.767	25.47
934.062	43.63
934.358	12.49
934.653	-88.72
934.948	43.63
935.244	-34.22
935.539	-5.68
935.834	15.08
936.129	-5.68
936.424	-78.34
936.719	22.87
937.014	129.28
937.309	129.28
937.603	59.2
937.898	46.23
938.193	-114.68
938.487	-96.51
938.782	-8.27
939.076	-86.13
939.371	-39.42
939.665	17.68
939.959	-96.51
940.254	-26.44
940.548	90.35
940.842	15.08
941.136	95.54
941.43	-44.61
941.724	-70.56
942.018	-34.22
942.311	-31.63
942.605	-26.44
942.899	48.82
943.193	25.47
943.486	-23.84
943.78	-29.03
944.073	-91.32
944.367	-75.75
944.66	-13.46
944.953	79.97
945.246	-36.82
945.54	129.28
945.833	-39.42
946.126	22.87
946.419	38.44
946.712	-99.11
947.005	-86.13
947.297	-36.82
947.59	25.47
947.883	7.3
948.176	72.18
948.468	33.25
948.761	-16.06
949.053	61.8
949.346	-3.08
949.638	-96.51
949.93	-109.49
950.222	-8.27
950.515	-16.06
950.807	-75.75
951.099	22.87
951.391	12.49
951.683	35.85
951.975	82.56
952.266	126.68
952.558	41.04
952.85	-31.63
953.141	87.75
953.433	-80.94
953.725	-52.39
954.016	-86.13
954.307	-117.27
954.599	-8.27
954.89	46.23
955.181	-151.01
955.472	-8.27
955.763	-101.7
956.055	-52.39
956.346	43.63
956.636	-18.65
956.927	-21.25
957.218	-36.82
957.509	-3.08
957.8	-99.11
958.09	-99.11
958.381	-5.68
958.671	-54.99
958.962	-49.8
959.252	-3.08
959.542	87.75
959.833	-36.82
960.123	-39.42
960.413	-5.68
960.703	-70.56
960.993	4.7
961.283	-47.2
961.573	-47.2
961.863	-127.65
962.153	-67.96
962.442	-13.46
962.732	28.06
963.022	-34.22
963.311	-60.18
963.601	-93.92
963.89	-132.84
964.18	54.01
964.469	-39.42
964.758	-10.87
965.047	4.7
965.337	-104.3
965.626	-47.2
965.915	-47.2
966.204	-114.68
966.493	95.54
966.781	12.49
967.07	-52.39
967.359	-67.96
967.648	7.3
967.936	9.89
968.225	9.89
968.513	-8.27
968.802	-73.15
969.09	-3.08
969.378	-88.72
969.666	12.49
969.955	56.61
970.243	-8.27
970.531	-3.08
970.819	-0.49
971.107	-36.82
971.395	-21.25
971.683	-73.15
971.97	28.06
972.258	-39.42
972.546	38.44
972.833	-47.2
973.121	-47.2
973.408	-44.61
973.696	4.7
973.983	12.49
974.27	-39.42
974.558	22.87
974.845	-91.32
975.132	43.63
975.419	20.28
975.706	25.47
975.993	-47.2
976.28	-57.58
976.566	51.42
976.853	43.63
977.14	-39.42
977.426	9.89
977.713	35.85
978	12.49
978.286	-83.53
978.572	30.66
978.859	82.56
979.145	30.66
979.431	-36.82
979.717	-13.46
980.003	-44.61
980.289	-78.34
980.575	-80.94
980.861	-0.49
981.147	7.3
981.433	28.06
981.719	-5.68
982.004	-5.68
982.29	-78.34
982.575	-70.56
982.861	17.68
983.146	-67.96
983.432	-52.39
983.717	64.39
984.002	-26.44
984.287	-13.46
984.573	-39.42
984.858	43.63
985.143	-21.25
985.428	17.68
985.712	64.39
985.997	-31.63
986.282	-21.25
986.567	7.3
986.851	-8.27
987.136	41.04
987.42	-67.96
987.705	12.49
987.989	-117.27
988.274	-47.2
988.558	-26.44
988.842	-0.49
989.126	51.42
989.41	-96.51
989.694	-67.96
989.978	12.49
990.262	-54.99
990.546	15.08
990.83	-3.08
991.114	-31.63
991.397	46.23
991.681	-18.65
991.965	-54.99
992.248	-70.56
992.531	30.66
992.815	-60.18
993.098	9.89
993.381	-18.65
993.665	-67.96
993.948	-44.61
994.231	-16.06
994.514	-96.51
994.797	-99.11
995.08	-57.58
995.362	-34.22
995.645	-47.2
995.928	22.87
996.211	-47.2
996.493	-3.08
996.776	33.25
997.058	22.87
997.34	-73.15
997.623	90.35
997.905	-112.08
998.187	-0.49
998.469	-5.68
998.752	-31.63
999.034	-8.27
999.316	41.04
999.597	-10.87
999.879	-135.44
1000.161	-42.01
1000.443	-47.2
1000.725	-78.34
1001.006	-5.68
1001.288	33.25
1001.569	-23.84
1001.851	-80.94
1002.132	72.18
1002.413	9.89
1002.694	56.61
1002.976	-65.37
1003.257	9.89
1003.538	-0.49
1003.819	-80.94
1004.1	-44.61
1004.381	28.06
1004.661	-26.44
1004.942	-31.63
1005.223	35.85
1005.504	-13.46
1005.784	100.73
1006.065	-47.2
1006.345	43.63
1006.625	-8.27
1006.906	-8.27
1007.186	85.16
1007.466	-88.72
1007.746	-125.06
1008.026	-88.72
1008.306	30.66
1008.586	-99.11
1008.866	46.23
1009.146	-26.44
1009.426	-39.42
1009.706	-18.65
1009.985	-80.94
1010.265	-119.87
1010.544	-0.49
1010.824	15.08
1011.103	46.23
1011.383	-16.06
1011.662	-52.39
1011.941	-125.06
1012.22	64.39
1012.499	54.01
1012.778	-49.8
1013.057	41.04
1013.336	-44.61
1013.615	9.89
1013.894	15.08
1014.173	-31.63
1014.451	-8.27
1014.73	54.01
1015.009	-18.65
1015.287	-18.65
1015.566	-16.06
1015.844	-104.3
1016.122	-42.01
1016.4	-99.11
1016.679	-57.58
1016.957	-10.87
1017.235	-60.18
1017.513	-49.8
1017.791	-49.8
1018.069	17.68
1018.346	-57.58
1018.624	25.47
1018.902	-99.11
1019.179	9.89
1019.457	-39.42
1019.735	-36.82
1020.012	38.44
1020.289	15.08
1020.567	15.08
1020.844	15.08
