Data from Subt2_19-08-51-998.txt Node
Date: Wed Feb 22 19:08:51 CST 2023
User: Optics Lab
Spectrometer: FLMS14302
Trigger mode: 0
Integration Time (sec): 1.000000E-1
Scans to average: 1
Electric dark correction enabled: true
Nonlinearity correction enabled: false
Boxcar width: 0
XAxis mode: Wavelengths
Number of Pixels in Spectrum: 2048
>>>>>Begin Spectral Data<<<<<
338.578	4.54
338.961	4.54
339.343	4.54
339.725	27.9
340.108	25.3
340.49	-60.34
340.872	25.3
341.254	1.95
341.636	-16.22
342.018	59.04
342.4	-60.34
342.782	-65.53
343.164	4.54
343.546	33.09
343.928	12.33
344.309	30.49
344.691	-21.41
345.073	84.99
345.455	35.68
345.836	-78.51
346.218	14.92
346.599	-57.74
346.981	25.3
347.362	53.85
347.744	-18.82
348.125	-65.53
348.506	-3.24
348.888	12.33
349.269	59.04
349.65	-3.24
350.031	105.76
350.413	-75.91
350.794	72.02
351.175	38.28
351.556	38.28
351.937	30.49
352.318	-0.65
352.698	66.83
353.079	12.33
353.46	-52.55
353.841	-47.36
354.222	4.54
354.602	33.09
354.983	72.02
355.363	-31.79
355.744	64.23
356.124	48.66
356.505	-8.43
356.885	-11.03
357.266	-5.84
357.646	20.11
358.026	9.73
358.407	82.4
358.787	118.73
359.167	27.9
359.547	-120.03
359.927	40.88
360.307	92.78
360.687	-8.43
361.067	53.85
361.447	105.76
361.827	-0.65
362.207	61.64
362.587	-39.58
362.966	-39.58
363.346	-26.6
363.726	56.45
364.105	-57.74
364.485	-44.77
364.865	-24.01
365.244	90.18
365.624	-3.24
366.003	33.09
366.382	-62.93
366.762	97.97
367.141	-57.74
367.52	48.66
367.899	-5.84
368.279	-5.84
368.658	59.04
369.037	-13.63
369.416	53.85
369.795	1.95
370.174	110.95
370.553	-13.63
370.932	-5.84
371.311	-44.77
371.689	66.83
372.068	-24.01
372.447	-8.43
372.825	27.9
373.204	-29.2
373.583	-13.63
373.961	87.59
374.34	20.11
374.718	-91.48
375.097	-34.39
375.475	53.85
375.853	22.71
376.232	40.88
376.61	20.11
376.988	-21.41
377.366	-8.43
377.744	64.23
378.122	14.92
378.5	-68.13
378.878	30.49
379.256	-39.58
379.634	-42.17
380.012	22.71
380.39	59.04
380.768	25.3
381.145	12.33
381.523	-26.6
381.901	87.59
382.278	17.52
382.656	27.9
383.033	-36.98
383.411	69.42
383.788	-65.53
384.166	-99.27
384.543	43.47
384.921	53.85
385.298	64.23
385.675	-44.77
386.052	-29.2
386.429	4.54
386.806	-18.82
387.184	7.14
387.561	100.57
387.938	-68.13
388.314	-34.39
388.691	-52.55
389.068	118.73
389.445	20.11
389.822	1.95
390.198	61.64
390.575	-42.17
390.952	-60.34
391.328	-31.79
391.705	-5.84
392.081	103.16
392.458	-11.03
392.834	14.92
393.211	82.4
393.587	74.61
393.963	-99.27
394.34	-26.6
394.716	-3.24
395.092	-47.36
395.468	9.73
395.844	-8.43
396.22	74.61
396.596	-52.55
396.972	-29.2
397.348	20.11
397.724	48.66
398.1	-13.63
398.476	14.92
398.851	51.26
399.227	-11.03
399.603	-21.41
399.978	77.21
400.354	1.95
400.729	9.73
401.105	-31.79
401.48	61.64
401.856	-3.24
402.231	72.02
402.606	-57.74
402.982	-11.03
403.357	-52.55
403.732	-16.22
404.107	97.97
404.482	48.66
404.857	20.11
405.232	4.54
405.607	59.04
405.982	48.66
406.357	-52.55
406.732	46.07
407.107	1.95
407.482	-13.63
407.856	-47.36
408.231	14.92
408.606	-18.82
408.98	-42.17
409.355	14.92
409.729	-34.39
410.104	-29.2
410.478	30.49
410.852	56.45
411.227	43.47
411.601	9.73
411.975	-11.03
412.35	56.45
412.724	-75.91
413.098	4.54
413.472	92.78
413.846	-68.13
414.22	53.85
414.594	-36.98
414.968	7.14
415.342	-42.17
415.715	-8.43
416.089	30.49
416.463	-143.39
416.837	-42.17
417.21	4.54
417.584	9.73
417.957	103.16
418.331	-34.39
418.704	35.68
419.078	69.42
419.451	61.64
419.824	82.4
420.198	35.68
420.571	84.99
420.944	38.28
421.317	4.54
421.69	35.68
422.064	-3.24
422.437	33.09
422.81	-130.41
423.182	-13.63
423.555	69.42
423.928	-3.24
424.301	-39.58
424.674	27.9
425.047	-44.77
425.419	-16.22
425.792	43.47
426.164	40.88
426.537	-34.39
426.91	-36.98
427.282	95.38
427.654	17.52
428.027	-26.6
428.399	79.8
428.771	53.85
429.144	126.52
429.516	92.78
429.888	-55.15
430.26	14.92
430.632	-60.34
431.004	30.49
431.376	40.88
431.748	108.35
432.12	-44.77
432.492	46.07
432.864	35.68
433.236	-36.98
433.607	-96.67
433.979	-73.32
434.351	59.04
434.722	22.71
435.094	48.66
435.465	33.09
435.837	139.49
436.208	290.02
436.58	243.3
436.951	129.11
437.322	84.99
437.693	69.42
438.065	25.3
438.436	84.99
438.807	43.47
439.178	53.85
439.549	-78.51
439.92	59.04
440.291	-29.2
440.662	46.07
441.033	113.54
441.403	59.04
441.774	-49.96
442.145	4.54
442.516	152.47
442.886	129.11
443.257	136.9
443.627	-26.6
443.998	1.95
444.368	-18.82
444.739	-13.63
445.109	30.49
445.479	27.9
445.85	95.38
446.22	20.11
446.59	9.73
446.96	103.16
447.33	38.28
447.7	84.99
448.07	14.92
448.44	51.26
448.81	-21.41
449.18	12.33
449.55	4.54
449.92	-3.24
450.29	-47.36
450.659	-21.41
451.029	100.57
451.399	48.66
451.768	74.61
452.138	38.28
452.507	103.16
452.877	43.47
453.246	142.09
453.615	77.21
453.985	87.59
454.354	92.78
454.723	90.18
455.092	79.8
455.462	-13.63
455.831	43.47
456.2	129.11
456.569	121.33
456.938	90.18
457.307	142.09
457.675	160.26
458.044	64.23
458.413	126.52
458.782	77.21
459.15	82.4
459.519	100.57
459.888	105.76
460.256	14.92
460.625	27.9
460.993	-5.84
461.362	35.68
461.73	56.45
462.098	48.66
462.467	74.61
462.835	33.09
463.203	126.52
463.571	33.09
463.939	-57.74
464.307	38.28
464.675	82.4
465.043	103.16
465.411	48.66
465.779	53.85
466.147	87.59
466.515	113.54
466.883	92.78
467.25	136.9
467.618	103.16
467.986	131.71
468.353	77.21
468.721	-26.6
469.088	33.09
469.456	61.64
469.823	95.38
470.19	79.8
470.558	126.52
470.925	38.28
471.292	51.26
471.659	123.92
472.027	100.57
472.394	72.02
472.761	64.23
473.128	118.73
473.495	118.73
473.862	43.47
474.228	-68.13
474.595	53.85
474.962	95.38
475.329	121.33
475.695	61.64
476.062	-34.39
476.429	53.85
476.795	77.21
477.162	155.07
477.528	56.45
477.895	53.85
478.261	30.49
478.627	84.99
478.994	35.68
479.36	64.23
479.726	43.47
480.092	40.88
480.458	-0.65
480.824	64.23
481.19	-65.53
481.556	-5.84
481.922	87.59
482.288	82.4
482.654	74.61
483.02	40.88
483.385	38.28
483.751	95.38
484.117	14.92
484.482	40.88
484.848	149.88
485.213	95.38
485.579	95.38
485.944	-44.77
486.31	82.4
486.675	95.38
487.04	100.57
487.406	90.18
487.771	134.3
488.136	97.97
488.501	43.47
488.866	4.54
489.231	131.71
489.596	46.07
489.961	178.42
490.326	100.57
490.691	100.57
491.056	170.64
491.42	48.66
491.785	87.59
492.15	129.11
492.514	136.9
492.879	90.18
493.243	-34.39
493.608	110.95
493.972	53.85
494.337	116.14
494.701	-21.41
495.065	40.88
495.43	7.14
495.794	95.38
496.158	105.76
496.522	40.88
496.886	-26.6
497.25	-8.43
497.614	17.52
497.978	116.14
498.342	-21.41
498.706	126.52
499.07	64.23
499.433	-16.22
499.797	48.66
500.161	51.26
500.524	82.4
500.888	38.28
501.251	43.47
501.615	82.4
501.978	25.3
502.342	-36.98
502.705	110.95
503.068	105.76
503.432	-21.41
503.795	-18.82
504.158	168.04
504.521	136.9
504.884	74.61
505.247	-11.03
505.61	53.85
505.973	43.47
506.336	136.9
506.699	-0.65
507.062	-11.03
507.424	108.35
507.787	30.49
508.15	17.52
508.512	77.21
508.875	14.92
509.238	142.09
509.6	82.4
509.962	-49.96
510.325	-3.24
510.687	22.71
511.049	-86.29
511.412	56.45
511.774	-52.55
512.136	103.16
512.498	59.04
512.86	129.11
513.222	-18.82
513.584	66.83
513.946	9.73
514.308	-29.2
514.67	-24.01
515.032	95.38
515.393	209.57
515.755	82.4
516.117	59.04
516.478	-0.65
516.84	97.97
517.201	40.88
517.563	129.11
517.924	95.38
518.286	129.11
518.647	22.71
519.008	61.64
519.37	27.9
519.731	79.8
520.092	-75.91
520.453	59.04
520.814	56.45
521.175	22.71
521.536	48.66
521.897	139.49
522.258	72.02
522.619	69.42
522.979	126.52
523.34	97.97
523.701	121.33
524.061	66.83
524.422	17.52
524.783	139.49
525.143	100.57
525.504	46.07
525.864	7.14
526.224	25.3
526.585	27.9
526.945	131.71
527.305	38.28
527.665	82.4
528.025	64.23
528.385	77.21
528.746	53.85
529.106	160.26
529.465	-11.03
529.825	103.16
530.185	74.61
530.545	25.3
530.905	105.76
531.264	87.59
531.624	4.54
531.984	90.18
532.343	7.14
532.703	64.23
533.062	22.71
533.422	69.42
533.781	84.99
534.141	79.8
534.5	27.9
534.859	191.4
535.218	69.42
535.577	53.85
535.937	35.68
536.296	48.66
536.655	7.14
537.014	110.95
537.373	108.35
537.731	-3.24
538.09	69.42
538.449	129.11
538.808	131.71
539.166	-8.43
539.525	72.02
539.884	123.92
540.242	90.18
540.601	84.99
540.959	118.73
541.318	61.64
541.676	123.92
542.034	196.59
542.393	300.4
542.751	365.28
543.109	347.11
543.467	347.11
543.825	206.97
544.183	300.4
544.541	341.92
544.899	271.85
545.257	287.42
545.615	206.97
545.973	284.83
546.331	227.73
546.688	315.97
547.046	155.07
547.404	191.4
547.761	147.28
548.119	40.88
548.476	157.66
548.834	191.4
549.191	204.38
549.548	43.47
549.906	118.73
550.263	40.88
550.62	84.99
550.977	35.68
551.334	66.83
551.691	27.9
552.048	66.83
552.405	77.21
552.762	193.99
553.119	59.04
553.476	144.68
553.833	95.38
554.189	131.71
554.546	25.3
554.903	66.83
555.259	77.21
555.616	43.47
555.972	9.73
556.329	64.23
556.685	53.85
557.042	64.23
557.398	72.02
557.754	134.3
558.11	-34.39
558.467	51.26
558.823	-11.03
559.179	97.97
559.535	-0.65
559.891	9.73
560.247	20.11
560.603	72.02
560.958	27.9
561.314	66.83
561.67	46.07
562.026	92.78
562.381	108.35
562.737	48.66
563.092	7.14
563.448	116.14
563.803	46.07
564.159	-8.43
564.514	40.88
564.869	-8.43
565.225	168.04
565.58	-29.2
565.935	92.78
566.29	72.02
566.645	20.11
567	105.76
567.355	61.64
567.71	-11.03
568.065	4.54
568.42	-31.79
568.775	84.99
569.13	25.3
569.484	35.68
569.839	-34.39
570.193	9.73
570.548	116.14
570.903	-24.01
571.257	17.52
571.611	33.09
571.966	25.3
572.32	1.95
572.674	27.9
573.029	-5.84
573.383	-8.43
573.737	-44.77
574.091	43.47
574.445	59.04
574.799	110.95
575.153	61.64
575.507	51.26
575.861	53.85
576.215	61.64
576.568	74.61
576.922	-0.65
577.276	-36.98
577.629	61.64
577.983	-47.36
578.336	-55.15
578.69	-73.32
579.043	110.95
579.397	72.02
579.75	64.23
580.103	66.83
580.456	30.49
580.81	72.02
581.163	-36.98
581.516	66.83
581.869	-29.2
582.222	72.02
582.575	-57.74
582.928	-3.24
583.281	-18.82
583.633	-88.89
583.986	9.73
584.339	-24.01
584.691	-29.2
585.044	-109.65
585.397	-34.39
585.749	66.83
586.102	17.52
586.454	-21.41
586.806	27.9
587.159	-96.67
587.511	-174.53
587.863	-143.39
588.215	-197.89
588.567	-169.34
588.92	-31.79
589.272	-120.03
589.624	-55.15
589.975	-130.41
590.327	-249.79
590.679	-130.41
591.031	-75.91
591.383	-42.17
591.734	-216.05
592.086	-182.32
592.438	-117.43
592.789	-192.7
593.141	-260.17
593.492	-351.01
593.844	-314.67
594.195	-226.43
594.546	-210.86
594.898	-296.51
595.249	-169.34
595.6	-114.84
595.951	-164.15
596.302	-42.17
596.653	-210.86
597.004	-192.7
597.355	-197.89
597.706	-140.79
598.057	-213.46
598.408	-205.67
598.758	-309.48
599.109	-322.46
599.46	-345.82
599.81	-527.48
600.161	-444.43
600.511	-532.67
600.862	-400.32
601.212	-426.27
601.562	-319.86
601.913	-319.86
602.263	-213.46
602.613	-190.1
602.963	-161.55
603.313	-174.53
603.663	-226.43
604.013	-164.15
604.363	-257.58
604.713	-226.43
605.063	-249.79
605.413	-273.15
605.763	-270.55
606.112	-382.15
606.462	-392.53
606.812	-410.7
607.161	-358.79
607.511	-540.46
607.86	-636.48
608.21	-592.36
608.559	-678.01
608.908	-1010.2
609.258	-1334.6
609.607	-1581.15
609.956	-2300.03
610.305	-3322.56
610.654	-5660.87
611.003	-9885.92
611.352	-14990.75
611.701	-18325.64
612.05	-17528.9
612.399	-15146.47
612.748	-12169.73
613.097	-9753.56
613.445	-8006.96
613.794	-6512.11
614.143	-5959.32
614.491	-5372.8
614.84	-5100.3
615.188	-4731.77
615.537	-4321.72
615.885	-3774.13
616.233	-3190.2
616.581	-2699.7
616.93	-2289.65
617.278	-1962.65
617.626	-1923.72
617.974	-1635.65
618.322	-1474.75
618.67	-1529.25
619.018	-1547.41
619.366	-1583.75
619.714	-1581.15
620.061	-1682.36
620.409	-1708.32
620.757	-1848.46
621.104	-1944.48
621.452	-1915.94
621.799	-1677.17
622.147	-1793.96
622.494	-1594.13
622.842	-1705.72
623.189	-1617.48
623.536	-1492.91
623.884	-1557.79
624.231	-1529.25
624.578	-1505.89
624.925	-1477.34
625.272	-1456.58
625.619	-1370.94
625.966	-1360.55
626.313	-1277.51
626.66	-1147.74
627.007	-1241.17
627.353	-1194.46
627.7	-1204.84
628.047	-1298.27
628.393	-1171.1
628.74	-1108.82
629.086	-1298.27
629.433	-1116.6
629.779	-1376.13
630.125	-1609.7
630.472	-1778.39
630.818	-2289.65
631.164	-2790.53
631.51	-3164.25
631.857	-2974.79
632.203	-2396.06
632.549	-1887.39
632.895	-1402.08
633.24	-1049.13
633.586	-802.58
633.932	-522.29
634.278	-338.03
634.624	-327.65
634.969	-301.7
635.315	-223.84
635.66	-317.27
636.006	-226.43
636.351	-293.91
636.697	-197.89
637.042	-158.96
637.388	-158.96
637.733	72.02
638.078	147.28
638.423	3850.69
638.768	6863.76
639.113	7240.07
639.458	8584.41
639.803	11662.36
640.148	7743.55
640.493	4810.93
640.838	3173.33
641.183	1836.78
641.527	920.66
641.872	295.21
642.217	-13.63
642.561	-55.15
642.906	-260.17
643.25	-135.6
643.595	-257.58
643.939	-257.58
644.284	-296.51
644.628	-130.41
644.972	-203.08
645.316	-280.93
645.66	-275.74
646.004	-278.34
646.348	-184.91
646.692	-242.01
647.036	-260.17
647.38	-257.58
647.724	-296.51
648.068	-234.22
648.412	-231.63
648.755	-322.46
649.099	-257.58
649.443	-242.01
649.786	-330.24
650.13	-436.65
650.473	-805.17
650.816	-1010.2
651.16	-1101.03
651.503	-984.24
651.846	-711.74
652.189	-605.34
652.533	-454.82
652.876	-483.36
653.219	-519.7
653.562	-506.72
653.905	-517.1
654.247	-465.2
654.59	-267.96
654.933	-317.27
655.276	-216.05
655.619	-296.51
655.961	-171.93
656.304	-213.46
656.646	-153.77
656.989	-229.03
657.331	-24.01
657.674	-319.86
658.016	-283.53
658.358	-229.03
658.701	-260.17
659.043	-330.24
659.385	-304.29
659.727	-174.53
660.069	-223.84
660.411	-208.27
660.753	-117.43
661.095	-135.6
661.437	-49.96
661.778	-216.05
662.12	-286.13
662.462	-444.43
662.804	-716.94
663.145	-714.34
663.487	-467.79
663.828	-506.72
664.17	-475.58
664.511	-452.22
664.852	-356.2
665.194	-358.79
665.535	-221.24
665.876	-205.67
666.217	-148.58
666.558	-187.51
666.899	-247.2
667.24	-210.86
667.581	-278.34
667.922	-221.24
668.263	-249.79
668.604	-296.51
668.944	-309.48
669.285	-244.6
669.626	-327.65
669.966	-218.65
670.307	-267.96
670.647	-153.77
670.988	-231.63
671.328	-174.53
671.669	-208.27
672.009	-244.6
672.349	-151.17
672.689	-143.39
673.029	-226.43
673.369	-78.51
673.71	-273.15
674.049	-164.15
674.389	-171.93
674.729	-208.27
675.069	-117.43
675.409	-73.32
675.749	-70.72
676.088	-49.96
676.428	-120.03
676.768	-151.17
677.107	-166.74
677.447	-205.67
677.786	-127.82
678.125	-164.15
678.465	-179.72
678.804	-182.32
679.143	-267.96
679.482	-210.86
679.821	-96.67
680.161	-153.77
680.5	-184.91
680.839	-125.22
681.177	-249.79
681.516	-47.36
681.855	-208.27
682.194	-96.67
682.533	-171.93
682.871	-171.93
683.21	-153.77
683.549	-161.55
683.887	-213.46
684.225	-195.29
684.564	-70.72
684.902	-127.82
685.241	-117.43
685.579	-18.82
685.917	-21.41
686.255	-179.72
686.593	-213.46
686.931	-254.98
687.269	-387.34
687.607	-519.7
687.945	-535.27
688.283	-574.2
688.621	-522.29
688.959	-392.53
689.296	-405.51
689.634	-278.34
689.972	-229.03
690.309	-120.03
690.647	-130.41
690.984	-197.89
691.322	-145.98
691.659	-47.36
691.996	-107.05
692.333	-44.77
692.671	-52.55
693.008	-125.22
693.345	-143.39
693.682	-249.79
694.019	-371.77
694.356	-358.79
694.693	-369.17
695.03	-265.36
695.366	-260.17
695.703	-171.93
696.04	-13.63
696.376	-179.72
696.713	-70.72
697.05	-94.08
697.386	-96.67
697.722	-78.51
698.059	-86.29
698.395	20.11
698.731	-16.22
699.068	-31.79
699.404	-13.63
699.74	-70.72
700.076	-57.74
700.412	-3.24
700.748	-57.74
701.084	51.26
701.42	-60.34
701.756	-86.29
702.091	-151.17
702.427	-18.82
702.763	-57.74
703.098	-31.79
703.434	-148.58
703.769	-205.67
704.105	-153.77
704.44	-143.39
704.776	-140.79
705.111	-179.72
705.446	-278.34
705.781	-382.15
706.117	-530.08
706.452	-631.29
706.787	-880.44
707.122	-1176.29
707.457	-1210.03
707.792	-1277.51
708.126	-1197.05
708.461	-1095.84
708.796	-1080.27
709.131	-1430.63
709.465	-1562.98
709.8	-1583.75
710.134	-1217.82
710.469	-1043.94
710.803	-789.6
711.138	-589.77
711.472	-610.53
711.806	-680.6
712.14	-859.67
712.475	-1194.46
712.809	-1272.32
713.143	-1150.34
713.477	-1051.72
713.811	-748.08
714.145	-561.22
714.479	-314.67
714.812	-257.58
715.146	-205.67
715.48	-114.84
715.814	-135.6
716.147	-114.84
716.481	-52.55
716.814	-0.65
717.148	4.54
717.481	30.49
717.814	-62.93
718.148	-151.17
718.481	-0.65
718.814	-29.2
719.147	77.21
719.48	-0.65
719.813	-200.48
720.146	-31.79
720.479	-47.36
720.812	95.38
721.145	-16.22
721.478	12.33
721.81	-47.36
722.143	1.95
722.476	43.47
722.808	-55.15
723.141	-70.72
723.473	-148.58
723.806	-0.65
724.138	30.49
724.47	-57.74
724.803	-62.93
725.135	-0.65
725.467	9.73
725.799	-21.41
726.131	-24.01
726.463	-104.46
726.795	9.73
727.127	4.54
727.459	35.68
727.791	-16.22
728.122	-11.03
728.454	66.83
728.786	-8.43
729.117	12.33
729.449	-81.1
729.78	-36.98
730.112	-24.01
730.443	-11.03
730.774	-73.32
731.106	-60.34
731.437	17.52
731.768	-86.29
732.099	-52.55
732.43	-11.03
732.761	-5.84
733.092	-73.32
733.423	-13.63
733.754	-0.65
734.085	9.73
734.416	22.71
734.746	-47.36
735.077	-68.13
735.407	14.92
735.738	-0.65
736.068	74.61
736.399	-65.53
736.729	-86.29
737.06	53.85
737.39	4.54
737.72	33.09
738.05	-47.36
738.38	4.54
738.71	-24.01
739.041	-29.2
739.37	38.28
739.7	-18.82
740.03	7.14
740.36	-21.41
740.69	-29.2
741.02	-57.74
741.349	40.88
741.679	14.92
742.008	-5.84
742.338	66.83
742.667	-60.34
742.997	-99.27
743.326	-86.29
743.655	48.66
743.984	7.14
744.314	-52.55
744.643	-133.01
744.972	-36.98
745.301	-107.05
745.63	-73.32
745.959	25.3
746.288	-34.39
746.616	-133.01
746.945	20.11
747.274	35.68
747.603	12.33
747.931	40.88
748.26	-18.82
748.588	92.78
748.917	48.66
749.245	-21.41
749.573	14.92
749.902	-13.63
750.23	-31.79
750.558	-13.63
750.886	-78.51
751.214	59.04
751.542	7.14
751.87	-21.41
752.198	-8.43
752.526	-55.15
752.854	-91.48
753.182	40.88
753.509	-62.93
753.837	22.71
754.165	35.68
754.492	33.09
754.82	4.54
755.147	-0.65
755.474	59.04
755.802	-29.2
756.129	110.95
756.456	84.99
756.783	-26.6
757.111	-11.03
757.438	-21.41
757.765	43.47
758.092	84.99
758.418	-18.82
758.745	-151.17
759.072	-26.6
759.399	-166.74
759.726	-187.51
760.052	-345.82
760.379	-475.58
760.705	-574.2
761.032	-395.13
761.358	-306.89
761.685	-309.48
762.011	-174.53
762.337	-88.89
762.663	-57.74
762.99	33.09
763.316	-39.58
763.642	25.3
763.968	59.04
764.294	-65.53
764.62	-75.91
764.946	-55.15
765.271	12.33
765.597	121.33
765.923	-91.48
766.248	-60.34
766.574	-34.39
766.9	14.92
767.225	27.9
767.55	27.9
767.876	-3.24
768.201	-13.63
768.526	-49.96
768.852	14.92
769.177	-18.82
769.502	-135.6
769.827	-65.53
770.152	-78.51
770.477	-65.53
770.802	-73.32
771.127	82.4
771.451	-31.79
771.776	-39.58
772.101	-0.65
772.425	-26.6
772.75	-21.41
773.075	40.88
773.399	46.07
773.723	-21.41
774.048	-70.72
774.372	-16.22
774.696	-0.65
775.02	-34.39
775.345	56.45
775.669	129.11
775.993	12.33
776.317	-5.84
776.641	-86.29
776.965	-49.96
777.288	74.61
777.612	-101.86
777.936	7.14
778.26	-5.84
778.583	33.09
778.907	1.95
779.23	-11.03
779.554	46.07
779.877	-39.58
780.2	20.11
780.524	-11.03
780.847	30.49
781.17	-44.77
781.493	-73.32
781.816	-135.6
782.139	-26.6
782.462	-52.55
782.785	-47.36
783.108	20.11
783.431	-21.41
783.754	74.61
784.076	-21.41
784.399	-13.63
784.722	-62.93
785.044	-36.98
785.367	-3.24
785.689	-62.93
786.011	20.11
786.334	-151.17
786.656	64.23
786.978	-21.41
787.3	-11.03
787.622	77.21
787.944	1.95
788.266	12.33
788.588	20.11
788.91	-31.79
789.232	22.71
789.554	61.64
789.876	14.92
790.197	56.45
790.519	9.73
790.841	59.04
791.162	-83.7
791.483	-8.43
791.805	-75.91
792.126	25.3
792.448	-31.79
792.769	-62.93
793.09	-16.22
793.411	-24.01
793.732	74.61
794.053	40.88
794.374	4.54
794.695	7.14
795.016	-133.01
795.337	-18.82
795.658	149.88
795.978	95.38
796.299	-88.89
796.619	-52.55
796.94	14.92
797.261	-70.72
797.581	40.88
797.901	43.47
798.222	-5.84
798.542	-70.72
798.862	66.83
799.182	14.92
799.502	-18.82
799.822	-29.2
800.142	-94.08
800.462	7.14
800.782	-34.39
801.102	-16.22
801.422	48.66
801.742	-47.36
802.061	-13.63
802.381	53.85
802.701	-18.82
803.02	-0.65
803.339	-18.82
803.659	-16.22
803.978	-24.01
804.298	43.47
804.617	123.92
804.936	-13.63
805.255	-55.15
805.574	-8.43
805.893	12.33
806.212	-0.65
806.531	-104.46
806.85	-39.58
807.169	77.21
807.487	25.3
807.806	-21.41
808.125	46.07
808.443	14.92
808.762	-29.2
809.08	-91.48
809.399	-5.84
809.717	79.8
810.035	79.8
810.354	-62.93
810.672	-231.63
810.99	-293.91
811.308	-561.22
811.626	-753.27
811.944	-774.03
812.262	-540.46
812.58	-413.29
812.898	-312.08
813.216	-174.53
813.533	-39.58
813.851	-83.7
814.169	-78.51
814.486	4.54
814.804	38.28
815.121	-11.03
815.438	-62.93
815.756	-44.77
816.073	-91.48
816.39	-31.79
816.707	9.73
817.025	-16.22
817.342	129.11
817.659	-125.22
817.976	-36.98
818.292	-83.7
818.609	-18.82
818.926	27.9
819.243	-125.22
819.559	-190.1
819.876	-47.36
820.193	-75.91
820.509	-42.17
820.826	-11.03
821.142	74.61
821.458	-75.91
821.775	59.04
822.091	14.92
822.407	-88.89
822.723	40.88
823.039	48.66
823.355	-42.17
823.671	12.33
823.987	27.9
824.303	-36.98
824.619	-42.17
824.935	103.16
825.25	-16.22
825.566	-39.58
825.881	-13.63
826.197	-42.17
826.512	-11.03
826.828	1.95
827.143	-81.1
827.458	-65.53
827.774	-26.6
828.089	46.07
828.404	-86.29
828.719	-70.72
829.034	69.42
829.349	-75.91
829.664	-34.39
829.979	-133.01
830.294	-327.65
830.608	-257.58
830.923	-182.32
831.238	-140.79
831.552	-148.58
831.867	-60.34
832.181	-104.46
832.496	-13.63
832.81	33.09
833.124	4.54
833.439	-3.24
833.753	-52.55
834.067	-3.24
834.381	116.14
834.695	-81.1
835.009	7.14
835.323	30.49
835.637	1.95
835.951	43.47
836.264	-16.22
836.578	61.64
836.892	-11.03
837.205	7.14
837.519	-21.41
837.832	-81.1
838.146	-11.03
838.459	-11.03
838.772	-184.91
839.086	-47.36
839.399	-47.36
839.712	40.88
840.025	4.54
840.338	-52.55
840.651	7.14
840.964	79.8
841.277	-135.6
841.59	142.09
841.902	56.45
842.215	33.09
842.528	46.07
842.84	-31.79
843.153	35.68
843.465	90.18
843.778	17.52
844.09	7.14
844.403	40.88
844.715	69.42
845.027	17.52
845.339	-31.79
845.651	40.88
845.963	-5.84
846.275	66.83
846.587	-29.2
846.899	92.78
847.211	-26.6
847.523	27.9
847.834	-8.43
848.146	-21.41
848.457	77.21
848.769	-75.91
849.08	110.95
849.392	-34.39
849.703	-47.36
850.015	-39.58
850.326	-3.24
850.637	-39.58
850.948	-44.77
851.259	-13.63
851.57	-83.7
851.881	35.68
852.192	-42.17
852.503	48.66
852.814	-81.1
853.125	4.54
853.435	-112.24
853.746	14.92
854.056	61.64
854.367	77.21
854.677	-133.01
854.988	66.83
855.298	-44.77
855.609	123.92
855.919	1.95
856.229	-107.05
856.539	-18.82
856.849	87.59
857.159	25.3
857.469	48.66
857.779	14.92
858.089	-5.84
858.399	-60.34
858.708	38.28
859.018	48.66
859.328	48.66
859.637	-39.58
859.947	14.92
860.256	51.26
860.566	-34.39
860.875	-47.36
861.184	-34.39
861.494	-75.91
861.803	14.92
862.112	43.47
862.421	100.57
862.73	100.57
863.039	-0.65
863.348	-3.24
863.657	69.42
863.965	-65.53
864.274	25.3
864.583	-0.65
864.891	-52.55
865.2	-36.98
865.509	-49.96
865.817	-44.77
866.125	-31.79
866.434	46.07
866.742	-8.43
867.05	-8.43
867.358	30.49
867.666	30.49
867.975	-39.58
868.283	-57.74
868.59	9.73
868.898	-21.41
869.206	25.3
869.514	17.52
869.822	-8.43
870.129	25.3
870.437	-62.93
870.744	-34.39
871.052	-18.82
871.359	90.18
871.667	69.42
871.974	20.11
872.281	1.95
872.589	69.42
872.896	14.92
873.203	-13.63
873.51	-31.79
873.817	-44.77
874.124	35.68
874.431	-24.01
874.737	87.59
875.044	-88.89
875.351	92.78
875.658	17.52
875.964	61.64
876.271	17.52
876.577	38.28
876.884	20.11
877.19	-3.24
877.496	-52.55
877.802	-18.82
878.109	-148.58
878.415	-42.17
878.721	-133.01
879.027	-120.03
879.333	-36.98
879.639	-36.98
879.945	-5.84
880.25	-39.58
880.556	7.14
880.862	-96.67
881.167	12.33
881.473	-13.63
881.778	51.26
882.084	1.95
882.389	27.9
882.695	87.59
883	95.38
883.305	61.64
883.61	61.64
883.915	-94.08
884.22	-60.34
884.525	53.85
884.83	-68.13
885.135	-31.79
885.44	108.35
885.745	-39.58
886.05	-36.98
886.354	64.23
886.659	51.26
886.963	136.9
887.268	7.14
887.572	22.71
887.877	92.78
888.181	-42.17
888.485	-29.2
888.789	-104.46
889.093	77.21
889.398	46.07
889.702	14.92
890.006	-13.63
890.309	14.92
890.613	64.23
890.917	53.85
891.221	-29.2
891.525	-5.84
891.828	27.9
892.132	-81.1
892.435	-122.63
892.739	-5.84
893.042	-60.34
893.345	-101.86
893.649	-81.1
893.952	-125.22
894.255	-81.1
894.558	-81.1
894.861	-96.67
895.164	-68.13
895.467	-52.55
895.77	87.59
896.073	22.71
896.376	35.68
896.678	17.52
896.981	20.11
897.284	-122.63
897.586	-47.36
897.889	-13.63
898.191	1.95
898.493	40.88
898.796	66.83
899.098	12.33
899.4	-18.82
899.702	40.88
900.004	25.3
900.306	-34.39
900.608	7.14
900.91	87.59
901.212	46.07
901.514	-29.2
901.816	-39.58
902.117	53.85
902.419	-3.24
902.721	-18.82
903.022	-16.22
903.323	100.57
903.625	17.52
903.926	64.23
904.227	74.61
904.529	12.33
904.83	175.83
905.131	66.83
905.432	17.52
905.733	35.68
906.034	-24.01
906.335	-5.84
906.636	1.95
906.936	4.54
907.237	7.14
907.538	-42.17
907.838	100.57
908.139	25.3
908.439	74.61
908.74	43.47
909.04	-26.6
909.34	9.73
909.641	43.47
909.941	4.54
910.241	14.92
910.541	-91.48
910.841	-73.32
911.141	-36.98
911.441	64.23
911.741	105.76
912.04	-78.51
912.34	66.83
912.64	17.52
912.939	-3.24
913.239	33.09
913.538	-122.63
913.838	48.66
914.137	22.71
914.436	64.23
914.736	22.71
915.035	-8.43
915.334	-11.03
915.633	-11.03
915.932	12.33
916.231	40.88
916.53	-0.65
916.829	-26.6
917.128	-52.55
917.426	-16.22
917.725	-83.7
918.024	25.3
918.322	59.04
918.621	103.16
918.919	33.09
919.217	-11.03
919.516	33.09
919.814	-60.34
920.112	82.4
920.41	35.68
920.709	-5.84
921.007	-42.17
921.305	-52.55
921.602	72.02
921.9	110.95
922.198	-39.58
922.496	-52.55
922.794	134.3
923.091	9.73
923.389	-24.01
923.686	61.64
923.984	-26.6
924.281	-16.22
924.578	25.3
924.876	1.95
925.173	-21.41
925.47	-29.2
925.767	95.38
926.064	-81.1
926.361	9.73
926.658	20.11
926.955	-29.2
927.252	64.23
927.549	-42.17
927.845	46.07
928.142	46.07
928.438	48.66
928.735	38.28
929.031	61.64
929.328	64.23
929.624	-13.63
929.92	79.8
930.217	30.49
930.513	66.83
930.809	1.95
931.105	87.59
931.401	-39.58
931.697	4.54
931.993	1.95
932.289	4.54
932.584	-112.24
932.88	-101.86
933.176	-49.96
933.471	77.21
933.767	126.52
934.062	103.16
934.358	-13.63
934.653	-60.34
934.948	22.71
935.244	-70.72
935.539	-5.84
935.834	-31.79
936.129	61.64
936.424	-24.01
936.719	-55.15
937.014	64.23
937.309	87.59
937.603	35.68
937.898	27.9
938.193	-107.05
938.487	1.95
938.782	-39.58
939.076	-24.01
939.371	-5.84
939.665	74.61
939.959	33.09
940.254	82.4
940.548	79.8
940.842	17.52
941.136	56.45
941.43	7.14
941.724	14.92
942.018	-39.58
942.311	-13.63
942.605	-29.2
942.899	100.57
943.193	1.95
943.486	-8.43
943.78	-39.58
944.073	-60.34
944.367	-16.22
944.66	1.95
944.953	131.71
945.246	-11.03
945.54	72.02
945.833	-81.1
946.126	30.49
946.419	123.92
946.712	-47.36
947.005	14.92
947.297	40.88
947.59	56.45
947.883	51.26
948.176	-18.82
948.468	64.23
948.761	40.88
949.053	-3.24
949.346	25.3
949.638	-52.55
949.93	-11.03
950.222	30.49
950.515	4.54
950.807	-44.77
951.099	-104.46
951.391	9.73
951.683	56.45
951.975	43.47
952.266	123.92
952.558	9.73
952.85	30.49
953.141	105.76
953.433	56.45
953.725	-21.41
954.016	20.11
954.307	-5.84
954.599	7.14
954.89	22.71
955.181	-73.32
955.472	40.88
955.763	-13.63
956.055	-52.55
956.346	17.52
956.636	14.92
956.927	46.07
957.218	27.9
957.509	-21.41
957.8	-26.6
958.09	-65.53
958.381	22.71
958.671	61.64
958.962	-26.6
959.252	59.04
959.542	152.47
959.833	77.21
960.123	-73.32
960.413	64.23
960.703	-21.41
960.993	-13.63
961.283	-8.43
961.573	4.54
961.863	-18.82
962.153	30.49
962.442	-11.03
962.732	12.33
963.022	27.9
963.311	25.3
963.601	-0.65
963.89	-88.89
964.18	30.49
964.469	4.54
964.758	-55.15
965.047	25.3
965.337	-18.82
965.626	-52.55
965.915	-117.43
966.204	30.49
966.493	43.47
966.781	30.49
967.07	4.54
967.359	-39.58
967.648	-31.79
967.936	14.92
968.225	-0.65
968.513	59.04
968.802	-99.27
969.09	-42.17
969.378	-91.48
969.666	14.92
969.955	105.76
970.243	-18.82
970.531	56.45
970.819	4.54
971.107	-39.58
971.395	-36.98
971.683	-49.96
971.97	43.47
972.258	-70.72
972.546	38.28
972.833	-55.15
973.121	1.95
973.408	-57.74
973.696	-11.03
973.983	40.88
974.27	72.02
974.558	69.42
974.845	-34.39
975.132	40.88
975.419	82.4
975.706	46.07
975.993	-31.79
976.28	-49.96
976.566	4.54
976.853	61.64
977.14	-29.2
977.426	-21.41
977.713	40.88
978	64.23
978.286	-16.22
978.572	-13.63
978.859	14.92
979.145	82.4
979.431	25.3
979.717	-29.2
980.003	-86.29
980.289	48.66
980.575	-36.98
980.861	69.42
981.147	1.95
981.433	-62.93
981.719	-18.82
982.004	-91.48
982.29	-94.08
982.575	17.52
982.861	-21.41
983.146	-31.79
983.432	77.21
983.717	87.59
984.002	-21.41
984.287	-68.13
984.573	-88.89
984.858	53.85
985.143	-3.24
985.428	35.68
985.712	-13.63
985.997	48.66
986.282	12.33
986.567	17.52
986.851	-29.2
987.136	92.78
987.42	92.78
987.705	66.83
987.989	-62.93
988.274	14.92
988.558	20.11
988.842	9.73
989.126	59.04
989.41	20.11
989.694	-65.53
989.978	-47.36
990.262	-42.17
990.546	-0.65
990.83	92.78
991.114	33.09
991.397	59.04
991.681	-0.65
991.965	-16.22
992.248	-26.6
992.531	38.28
992.815	-83.7
993.098	-42.17
993.381	-18.82
993.665	1.95
993.948	-39.58
994.231	9.73
994.514	-47.36
994.797	-130.41
995.08	30.49
995.362	-86.29
995.645	-42.17
995.928	-29.2
996.211	-60.34
996.493	-31.79
996.776	90.18
997.058	4.54
997.34	-8.43
997.623	-24.01
997.905	-52.55
998.187	-13.63
998.469	27.9
998.752	-8.43
999.034	77.21
999.316	35.68
999.597	35.68
999.879	-91.48
1000.161	17.52
1000.443	-75.91
1000.725	-13.63
1001.006	43.47
1001.288	51.26
1001.569	-8.43
1001.851	4.54
1002.132	116.14
1002.413	20.11
1002.694	20.11
1002.976	40.88
1003.257	59.04
1003.538	-39.58
1003.819	-5.84
1004.1	4.54
1004.381	46.07
1004.661	-26.6
1004.942	-34.39
1005.223	-8.43
1005.504	-8.43
1005.784	48.66
1006.065	-3.24
1006.345	-29.2
1006.625	33.09
1006.906	25.3
1007.186	149.88
1007.466	-39.58
1007.746	-78.51
1008.026	-49.96
1008.306	7.14
1008.586	48.66
1008.866	170.64
1009.146	7.14
1009.426	-18.82
1009.706	12.33
1009.985	-16.22
1010.265	-3.24
1010.544	-65.53
1010.824	61.64
1011.103	-13.63
1011.383	-55.15
1011.662	12.33
1011.941	-109.65
1012.22	51.26
1012.499	92.78
1012.778	-78.51
1013.057	1.95
1013.336	-3.24
1013.615	-26.6
1013.894	30.49
1014.173	-44.77
1014.451	56.45
1014.73	105.76
1015.009	1.95
1015.287	51.26
1015.566	9.73
1015.844	-91.48
1016.122	-8.43
1016.4	-26.6
1016.679	77.21
1016.957	-88.89
1017.235	-36.98
1017.513	-31.79
1017.791	53.85
1018.069	48.66
1018.346	-60.34
1018.624	1.95
1018.902	-135.6
1019.179	-13.63
1019.457	-34.39
1019.735	20.11
1020.012	33.09
1020.289	77.21
1020.567	77.21
1020.844	77.21
