Data from Subt2_19-12-06-990.txt Node
Date: Wed Feb 22 19:12:06 CST 2023
User: Optics Lab
Spectrometer: FLMS14302
Trigger mode: 0
Integration Time (sec): 1.000000E-1
Scans to average: 1
Electric dark correction enabled: true
Nonlinearity correction enabled: false
Boxcar width: 0
XAxis mode: Wavelengths
Number of Pixels in Spectrum: 2048
>>>>>Begin Spectral Data<<<<<
338.578	3.41
338.961	3.41
339.343	3.41
339.725	34.55
340.108	50.12
340.49	-77.05
340.872	60.5
341.254	76.07
341.636	21.57
342.018	3.41
342.4	-79.64
342.782	13.79
343.164	-9.57
343.546	-6.97
343.928	52.72
344.309	11.19
344.691	-14.76
345.073	18.98
345.455	21.57
345.836	-58.88
346.218	-32.93
346.599	-48.5
346.981	8.6
347.362	99.43
347.744	-4.38
348.125	18.98
348.506	42.33
348.888	91.64
349.269	13.79
349.65	13.79
350.031	102.03
350.413	3.41
350.794	39.74
351.175	47.53
351.556	21.57
351.937	60.5
352.318	-45.9
352.698	18.98
353.079	-45.9
353.46	-66.67
353.841	24.17
354.222	-4.38
354.602	-74.45
354.983	-25.14
355.363	-6.97
355.744	11.19
356.124	94.24
356.505	60.5
356.885	-1.78
357.266	21.57
357.646	107.22
358.026	63.1
358.407	60.5
358.787	18.98
359.167	24.17
359.547	-40.71
359.927	99.43
360.307	60.5
360.687	-22.55
361.067	-19.95
361.447	-14.76
361.827	3.41
362.207	-6.97
362.587	-12.17
362.966	26.76
363.346	6
363.726	37.14
364.105	11.19
364.485	13.79
364.865	24.17
365.244	26.76
365.624	-17.36
366.003	13.79
366.382	-4.38
366.762	104.62
367.141	-17.36
367.52	52.72
367.899	42.33
368.279	73.48
368.658	44.93
369.037	73.48
369.416	-27.74
369.795	26.76
370.174	65.69
370.553	135.76
370.932	37.14
371.311	-25.14
371.689	37.14
372.068	47.53
372.447	50.12
372.825	31.95
373.204	52.72
373.583	-43.31
373.961	122.79
374.34	81.26
374.718	-6.97
375.097	31.95
375.475	122.79
375.853	96.83
376.232	44.93
376.61	52.72
376.988	63.1
377.366	8.6
377.744	37.14
378.122	89.05
378.5	-19.95
378.878	47.53
379.256	-64.07
379.634	37.14
380.012	-12.17
380.39	34.55
380.768	-9.57
381.145	-22.55
381.523	-17.36
381.901	81.26
382.278	47.53
382.656	37.14
383.033	34.55
383.411	109.81
383.788	-53.69
384.166	-32.93
384.543	125.38
384.921	73.48
385.298	120.19
385.675	65.69
386.052	8.6
386.429	117.6
386.806	52.72
387.184	70.88
387.561	99.43
387.938	18.98
388.314	-19.95
388.691	24.17
389.068	76.07
389.445	18.98
389.822	8.6
390.198	11.19
390.575	-82.24
390.952	-19.95
391.328	3.41
391.705	117.6
392.081	104.62
392.458	34.55
392.834	3.41
393.211	78.67
393.587	0.81
393.963	-123.76
394.34	-56.28
394.716	42.33
395.092	-9.57
395.468	29.36
395.844	31.95
396.22	120.19
396.596	0.81
396.972	-4.38
397.348	13.79
397.724	-9.57
398.1	-27.74
398.476	89.05
398.851	104.62
399.227	-25.14
399.603	-4.38
399.978	21.57
400.354	117.6
400.729	29.36
401.105	60.5
401.48	-32.93
401.856	-30.33
402.231	47.53
402.606	39.74
402.982	-17.36
403.357	-43.31
403.732	11.19
404.107	81.26
404.482	13.79
404.857	6
405.232	60.5
405.607	-14.76
405.982	39.74
406.357	21.57
406.732	57.91
407.107	-6.97
407.482	-51.09
407.856	18.98
408.231	13.79
408.606	-35.52
408.98	0.81
409.355	57.91
409.729	55.31
410.104	-14.76
410.478	63.1
410.852	-12.17
411.227	63.1
411.601	-4.38
411.975	21.57
412.35	86.45
412.724	-48.5
413.098	81.26
413.472	29.36
413.846	-30.33
414.22	78.67
414.594	37.14
414.968	91.64
415.342	-38.12
415.715	13.79
416.089	6
416.463	-1.78
416.837	-84.83
417.21	-30.33
417.584	-14.76
417.957	63.1
418.331	55.31
418.704	55.31
419.078	44.93
419.451	-6.97
419.824	50.12
420.198	47.53
420.571	42.33
420.944	63.1
421.317	16.38
421.69	65.69
422.064	47.53
422.437	-30.33
422.81	-61.47
423.182	73.48
423.555	140.95
423.928	-25.14
424.301	16.38
424.674	55.31
425.047	-6.97
425.419	-27.74
425.792	-4.38
426.164	26.76
426.537	-25.14
426.91	31.95
427.282	52.72
427.654	70.88
428.027	76.07
428.399	37.14
428.771	6
429.144	78.67
429.516	81.26
429.888	-35.52
430.26	18.98
430.632	-74.45
431.004	47.53
431.376	-6.97
431.748	34.55
432.12	-69.26
432.492	24.17
432.864	78.67
433.236	-123.76
433.607	-51.09
433.979	-25.14
434.351	73.48
434.722	73.48
435.094	65.69
435.465	13.79
435.837	120.19
436.208	198.05
436.58	262.93
436.951	120.19
437.322	172.1
437.693	37.14
438.065	50.12
438.436	63.1
438.807	50.12
439.178	127.98
439.549	-48.5
439.92	44.93
440.291	-51.09
440.662	39.74
441.033	115
441.403	140.95
441.774	16.38
442.145	60.5
442.516	44.93
442.886	133.17
443.257	115
443.627	47.53
443.998	3.41
444.368	-35.52
444.739	70.88
445.109	96.83
445.479	112.41
445.85	83.86
446.22	16.38
446.59	96.83
446.96	198.05
447.33	24.17
447.7	177.29
448.07	86.45
448.44	115
448.81	117.6
449.18	94.24
449.55	76.07
449.92	89.05
450.29	52.72
450.659	47.53
451.029	120.19
451.399	125.38
451.768	182.48
452.138	107.22
452.507	-38.12
452.877	37.14
453.246	133.17
453.615	42.33
453.985	83.86
454.354	224
454.723	65.69
455.092	117.6
455.462	37.14
455.831	151.33
456.2	140.95
456.569	239.57
456.938	125.38
457.307	161.72
457.675	203.24
458.044	213.62
458.413	169.5
458.782	125.38
459.15	247.36
459.519	174.69
459.888	55.31
460.256	94.24
460.625	182.48
460.993	179.88
461.362	127.98
461.73	161.72
462.098	86.45
462.467	135.76
462.835	125.38
463.203	239.57
463.571	122.79
463.939	68.29
464.307	109.81
464.675	159.12
465.043	153.93
465.411	200.64
465.779	195.45
466.147	148.74
466.515	151.33
466.883	169.5
467.25	296.67
467.618	200.64
467.986	94.24
468.353	166.91
468.721	89.05
469.088	143.55
469.456	146.14
469.823	200.64
470.19	102.03
470.558	187.67
470.925	122.79
471.292	109.81
471.659	208.43
472.027	122.79
472.394	185.07
472.761	169.5
473.128	73.48
473.495	99.43
473.862	169.5
474.228	44.93
474.595	78.67
474.962	159.12
475.329	125.38
475.695	109.81
476.062	37.14
476.429	81.26
476.795	109.81
477.162	156.53
477.528	76.07
477.895	213.62
478.261	185.07
478.627	76.07
478.994	86.45
479.36	83.86
479.726	44.93
480.092	112.41
480.458	104.62
480.824	89.05
481.19	-4.38
481.556	115
481.922	60.5
482.288	63.1
482.654	159.12
483.02	50.12
483.385	146.14
483.751	153.93
484.117	161.72
484.482	16.38
484.848	112.41
485.213	231.79
485.579	221.41
485.944	70.88
486.31	151.33
486.675	102.03
487.04	177.29
487.406	130.57
487.771	257.74
488.136	179.88
488.501	91.64
488.866	89.05
489.231	255.14
489.596	133.17
489.961	208.43
490.326	159.12
490.691	146.14
491.056	153.93
491.42	65.69
491.785	86.45
492.15	161.72
492.514	211.03
492.879	164.31
493.243	83.86
493.608	187.67
493.972	50.12
494.337	146.14
494.701	-17.36
495.065	94.24
495.43	148.74
495.794	133.17
496.158	78.67
496.522	109.81
496.886	68.29
497.25	63.1
497.614	122.79
497.978	148.74
498.342	83.86
498.706	73.48
499.07	89.05
499.433	102.03
499.797	94.24
500.161	115
500.524	143.55
500.888	107.22
501.251	148.74
501.615	140.95
501.978	50.12
502.342	112.41
502.705	151.33
503.068	156.53
503.432	104.62
503.795	107.22
504.158	159.12
504.521	130.57
504.884	192.86
505.247	76.07
505.61	120.19
505.973	166.91
506.336	174.69
506.699	73.48
507.062	104.62
507.424	182.48
507.787	86.45
508.15	143.55
508.512	164.31
508.875	135.76
509.238	161.72
509.6	187.67
509.962	148.74
510.325	34.55
510.687	81.26
511.049	73.48
511.412	239.57
511.774	31.95
512.136	120.19
512.498	133.17
512.86	115
513.222	50.12
513.584	117.6
513.946	76.07
514.308	-6.97
514.67	96.83
515.032	86.45
515.393	151.33
515.755	177.29
516.117	89.05
516.478	182.48
516.84	229.19
517.201	177.29
517.563	187.67
517.924	146.14
518.286	135.76
518.647	63.1
519.008	125.38
519.37	99.43
519.731	177.29
520.092	44.93
520.453	192.86
520.814	112.41
521.175	130.57
521.536	107.22
521.897	203.24
522.258	44.93
522.619	153.93
522.979	112.41
523.34	177.29
523.701	109.81
524.061	68.29
524.422	143.55
524.783	226.6
525.143	185.07
525.504	185.07
525.864	143.55
526.224	117.6
526.585	91.64
526.945	169.5
527.305	65.69
527.665	148.74
528.025	99.43
528.385	117.6
528.746	198.05
529.106	187.67
529.465	63.1
529.825	182.48
530.185	104.62
530.545	86.45
530.905	166.91
531.264	99.43
531.624	73.48
531.984	104.62
532.343	104.62
532.703	172.1
533.062	31.95
533.422	102.03
533.781	122.79
534.141	96.83
534.5	70.88
534.859	179.88
535.218	112.41
535.577	148.74
535.937	140.95
536.296	112.41
536.655	115
537.014	185.07
537.373	187.67
537.731	138.36
538.09	205.83
538.449	104.62
538.808	185.07
539.166	60.5
539.525	166.91
539.884	200.64
540.242	127.98
540.601	164.31
540.959	205.83
541.318	57.91
541.676	182.48
542.034	244.76
542.393	392.69
542.751	283.69
543.109	335.6
543.467	418.64
543.825	296.67
544.183	361.55
544.541	353.76
544.899	374.53
545.257	348.57
545.615	203.24
545.973	268.12
546.331	268.12
546.688	356.36
547.046	268.12
547.404	221.41
547.761	221.41
548.119	107.22
548.476	296.67
548.834	179.88
549.191	229.19
549.548	208.43
549.906	109.81
550.263	78.67
550.62	109.81
550.977	213.62
551.334	179.88
551.691	109.81
552.048	190.26
552.405	182.48
552.762	211.03
553.119	172.1
553.476	102.03
553.833	172.1
554.189	120.19
554.546	140.95
554.903	102.03
555.259	86.45
555.616	112.41
555.972	159.12
556.329	120.19
556.685	122.79
557.042	94.24
557.398	159.12
557.754	99.43
558.11	44.93
558.467	179.88
558.823	76.07
559.179	156.53
559.535	138.36
559.891	109.81
560.247	94.24
560.603	156.53
560.958	57.91
561.314	156.53
561.67	135.76
562.026	185.07
562.381	104.62
562.737	182.48
563.092	89.05
563.448	187.67
563.803	65.69
564.159	151.33
564.514	122.79
564.869	130.57
565.225	166.91
565.58	31.95
565.935	78.67
566.29	112.41
566.645	130.57
567	57.91
567.355	153.93
567.71	151.33
568.065	44.93
568.42	0.81
568.775	133.17
569.13	117.6
569.484	102.03
569.839	47.53
570.193	81.26
570.548	127.98
570.903	130.57
571.257	60.5
571.611	135.76
571.966	91.64
572.32	52.72
572.674	42.33
573.029	112.41
573.383	115
573.737	39.74
574.091	156.53
574.445	44.93
574.799	159.12
575.153	112.41
575.507	65.69
575.861	47.53
576.215	-4.38
576.568	151.33
576.922	18.98
577.276	11.19
577.629	89.05
577.983	44.93
578.336	24.17
578.69	-12.17
579.043	185.07
579.397	89.05
579.75	-4.38
580.103	21.57
580.456	86.45
580.81	70.88
581.163	13.79
581.516	83.86
581.869	78.67
582.222	89.05
582.575	-27.74
582.928	68.29
583.281	112.41
583.633	-4.38
583.986	42.33
584.339	47.53
584.691	-35.52
585.044	39.74
585.397	107.22
585.749	96.83
586.102	16.38
586.454	37.14
586.806	24.17
587.159	-51.09
587.511	-77.05
587.863	-82.24
588.215	-160.09
588.567	-82.24
588.92	-113.38
589.272	-134.14
589.624	-30.33
589.975	26.76
590.327	-113.38
590.679	-84.83
591.031	-123.76
591.383	-149.71
591.734	-110.78
592.086	-30.33
592.438	-121.17
592.789	-160.09
593.141	-243.14
593.492	-336.57
593.844	-362.52
594.195	-232.76
594.546	-240.55
594.898	-261.31
595.249	-136.74
595.6	-103
595.951	-84.83
596.302	8.6
596.653	-100.4
597.004	-95.21
597.355	-74.45
597.706	-53.69
598.057	-250.93
598.408	-186.05
598.758	-183.45
599.109	-261.31
599.46	-411.83
599.81	-448.17
600.161	-367.71
600.511	-424.81
600.862	-328.78
601.212	-305.43
601.562	-359.93
601.913	-157.5
602.263	-139.33
602.613	-191.24
602.963	-160.09
603.313	-144.52
603.663	-167.88
604.013	-64.07
604.363	-154.9
604.713	-157.5
605.063	-126.36
605.413	-224.97
605.763	-250.93
606.112	-289.86
606.462	-214.59
606.812	-323.59
607.161	-357.33
607.511	-328.78
607.86	-559.76
608.21	-606.48
608.559	-660.98
608.908	-972.4
609.258	-1270.86
609.607	-1398.02
609.956	-2218.12
610.305	-3238.05
610.654	-5589.34
611.003	-9801.41
611.352	-15004.87
611.701	-18415.01
612.05	-17633.84
612.399	-15189.13
612.748	-12002.17
613.097	-9669.05
613.445	-7880.93
613.794	-6502.86
614.143	-5867.03
614.491	-5379.12
614.84	-5062.5
615.188	-4704.36
615.537	-4270.95
615.885	-3790.83
616.233	-3043.41
616.581	-2656.71
616.93	-2254.45
617.278	-1932.64
617.626	-1756.17
617.974	-1600.45
618.322	-1421.38
618.67	-1460.31
619.018	-1501.83
619.366	-1527.79
619.714	-1532.98
620.061	-1561.52
620.409	-1712.05
620.757	-1748.38
621.104	-1828.83
621.452	-1789.9
621.799	-1670.52
622.147	-1776.93
622.494	-1597.86
622.842	-1548.55
623.189	-1561.52
623.536	-1449.93
623.884	-1392.83
624.231	-1398.02
624.578	-1475.88
624.925	-1413.59
625.272	-1379.86
625.619	-1320.17
625.966	-1296.81
626.313	-1138.5
626.66	-1138.5
627.007	-1146.29
627.353	-1122.93
627.7	-1182.62
628.047	-1198.19
628.393	-1109.95
628.74	-1068.43
629.086	-1263.07
629.433	-1159.26
629.779	-1351.31
630.125	-1449.93
630.472	-1732.81
630.818	-2148.05
631.164	-2796.86
631.51	-3022.64
631.857	-3020.05
632.203	-2394.6
632.549	-1766.55
632.895	-1302
633.24	-894.55
633.586	-684.33
633.932	-502.67
634.278	-308.02
634.624	-250.93
634.969	-214.59
635.315	-113.38
635.66	-245.74
636.006	-134.14
636.351	-48.5
636.697	-103
637.042	68.29
637.388	21.57
637.733	288.88
638.078	732.67
638.423	6385.1
638.768	15385.39
639.113	16833.54
639.458	21398.56
639.803	25299.21
640.148	17708.13
640.493	9699.22
640.838	6180.08
641.183	3701.62
641.527	1949.84
641.872	875.41
642.217	296.67
642.561	177.29
642.906	16.38
643.25	-58.88
643.595	-108.19
643.939	-237.95
644.284	-206.81
644.628	-90.02
644.972	-134.14
645.316	-186.05
645.66	-188.64
646.004	-193.83
646.348	-196.43
646.692	-162.69
647.036	-165.28
647.38	-188.64
647.724	-232.76
648.068	-167.88
648.412	-186.05
648.755	-160.09
649.099	-308.02
649.443	-199.02
649.786	-417.02
650.13	-383.28
650.473	-720.67
650.816	-985.38
651.16	-884.17
651.503	-915.31
651.846	-710.28
652.189	-622.05
652.533	-365.12
652.876	-463.74
653.219	-505.26
653.562	-404.05
653.905	-453.36
654.247	-411.83
654.59	-352.14
654.933	-352.14
655.276	-243.14
655.619	-160.09
655.961	-144.52
656.304	-79.64
656.646	-79.64
656.989	-103
657.331	-25.14
657.674	-243.14
658.016	-274.28
658.358	-217.19
658.701	-284.67
659.043	-123.76
659.385	-266.5
659.727	-180.86
660.069	-167.88
660.411	-191.24
660.753	-66.67
661.095	-186.05
661.437	-43.31
661.778	-167.88
662.12	-287.26
662.462	-310.62
662.804	-648
663.145	-775.17
663.487	-515.64
663.828	-492.28
664.17	-326.19
664.511	-333.97
664.852	-263.9
665.194	-232.76
665.535	-84.83
665.876	-162.69
666.217	-110.78
666.558	-167.88
666.899	-232.76
667.24	-183.45
667.581	-274.28
667.922	-227.57
668.263	-183.45
668.604	-243.14
668.944	-274.28
669.285	-227.57
669.626	-269.09
669.966	-154.9
670.307	-237.95
670.647	-136.74
670.988	-186.05
671.328	-105.59
671.669	-206.81
672.009	-214.59
672.349	-115.97
672.689	-69.26
673.029	-188.64
673.369	-19.95
673.71	-295.05
674.049	-95.21
674.389	-123.76
674.729	-219.78
675.069	-82.24
675.409	-95.21
675.749	-136.74
676.088	-95.21
676.428	-152.31
676.768	-196.43
677.107	-276.88
677.447	-183.45
677.786	-110.78
678.125	-222.38
678.465	-162.69
678.804	-165.28
679.143	-201.62
679.482	-154.9
679.821	-105.59
680.161	-144.52
680.5	-224.97
680.839	-134.14
681.177	-170.47
681.516	-157.5
681.855	-193.83
682.194	-108.19
682.533	-217.19
682.871	-170.47
683.21	-64.07
683.549	-175.67
683.887	-100.4
684.225	-103
684.564	-79.64
684.902	-84.83
685.241	-123.76
685.579	-61.47
685.917	-64.07
686.255	-113.38
686.593	-214.59
686.931	-196.43
687.269	-321
687.607	-546.78
687.945	-513.05
688.283	-455.95
688.621	-505.26
688.959	-401.45
689.296	-393.67
689.634	-224.97
689.972	-160.09
690.309	-160.09
690.647	-128.95
690.984	-199.02
691.322	-149.71
691.659	-144.52
691.996	-25.14
692.333	-38.12
692.671	-162.69
693.008	-160.09
693.345	-64.07
693.682	-302.83
694.019	-414.43
694.356	-315.81
694.693	-411.83
695.03	-282.07
695.366	-250.93
695.703	-204.21
696.04	-74.45
696.376	-118.57
696.713	-152.31
697.05	-74.45
697.386	-118.57
697.722	-17.36
698.059	6
698.395	47.53
698.731	-53.69
699.068	-22.55
699.404	-66.67
699.74	-35.52
700.076	-9.57
700.412	-43.31
700.748	-6.97
701.084	44.93
701.42	-12.17
701.756	-92.62
702.091	-48.5
702.427	-14.76
702.763	-92.62
703.098	-126.36
703.434	-84.83
703.769	-134.14
704.105	-105.59
704.44	-147.12
704.776	-48.5
705.111	-178.26
705.446	-289.86
705.781	-380.69
706.117	-494.88
706.452	-622.05
706.787	-878.98
707.122	-1167.05
707.457	-1135.9
707.792	-1322.76
708.126	-1172.24
708.461	-1068.43
708.796	-1185.21
709.131	-1447.33
709.465	-1579.69
709.8	-1587.48
710.134	-1143.69
710.469	-1003.55
710.803	-746.62
711.138	-671.36
711.472	-572.74
711.806	-603.88
712.14	-746.62
712.475	-1122.93
712.809	-1218.95
713.143	-1154.07
713.477	-972.4
713.811	-780.36
714.145	-541.59
714.479	-383.28
714.812	-250.93
715.146	-139.33
715.48	-58.88
715.814	-6.97
716.147	-92.62
716.481	-12.17
716.814	11.19
717.148	-35.52
717.481	47.53
717.814	-17.36
718.148	-126.36
718.481	34.55
718.814	-38.12
719.147	42.33
719.48	-51.09
719.813	-219.78
720.146	-14.76
720.479	63.1
720.812	-38.12
721.145	-87.43
721.478	-12.17
721.81	-40.71
722.143	60.5
722.476	68.29
722.808	-45.9
723.141	-90.02
723.473	24.17
723.806	65.69
724.138	68.29
724.47	-64.07
724.803	63.1
725.135	0.81
725.467	-14.76
725.799	-4.38
726.131	-53.69
726.463	-134.14
726.795	42.33
727.127	44.93
727.459	13.79
727.791	-48.5
728.122	44.93
728.454	-1.78
728.786	21.57
729.117	16.38
729.449	-51.09
729.78	-4.38
730.112	-12.17
730.443	-17.36
730.774	63.1
731.106	-14.76
731.437	89.05
731.768	-100.4
732.099	21.57
732.43	-1.78
732.761	-9.57
733.092	-69.26
733.423	11.19
733.754	29.36
734.085	29.36
734.416	-17.36
734.746	-45.9
735.077	-19.95
735.407	-1.78
735.738	24.17
736.068	135.76
736.399	6
736.729	-51.09
737.06	76.07
737.39	63.1
737.72	26.76
738.05	-6.97
738.38	-40.71
738.71	73.48
739.041	83.86
739.37	86.45
739.7	-9.57
740.03	11.19
740.36	-4.38
740.69	57.91
741.02	68.29
741.349	24.17
741.679	37.14
742.008	11.19
742.338	-4.38
742.667	-6.97
742.997	-71.86
743.326	-53.69
743.655	0.81
743.984	47.53
744.314	-56.28
744.643	-6.97
744.972	24.17
745.301	-74.45
745.63	8.6
745.959	24.17
746.288	-77.05
746.616	6
746.945	-27.74
747.274	-1.78
747.603	-19.95
747.931	24.17
748.26	13.79
748.588	-35.52
748.917	34.55
749.245	13.79
749.573	68.29
749.902	-14.76
750.23	55.31
750.558	78.67
750.886	63.1
751.214	81.26
751.542	26.76
751.87	68.29
752.198	-61.47
752.526	37.14
752.854	-110.78
753.182	112.41
753.509	-14.76
753.837	-14.76
754.165	70.88
754.492	-4.38
754.82	29.36
755.147	60.5
755.474	34.55
755.802	39.74
756.129	70.88
756.456	122.79
756.783	60.5
757.111	-56.28
757.438	-43.31
757.765	55.31
758.092	70.88
758.418	13.79
758.745	-100.4
759.072	-53.69
759.399	-118.57
759.726	-250.93
760.052	-331.38
760.379	-487.09
760.705	-520.83
761.032	-383.28
761.358	-282.07
761.685	-230.17
762.011	-103
762.337	-95.21
762.663	-30.33
762.99	29.36
763.316	39.74
763.642	24.17
763.968	8.6
764.294	-30.33
764.62	-64.07
764.946	-69.26
765.271	52.72
765.597	107.22
765.923	-32.93
766.248	39.74
766.574	42.33
766.9	3.41
767.225	37.14
767.55	112.41
767.876	122.79
768.201	-79.64
768.526	99.43
768.852	8.6
769.177	-17.36
769.502	-53.69
769.827	-123.76
770.152	-30.33
770.477	-64.07
770.802	-56.28
771.127	112.41
771.451	52.72
771.776	3.41
772.101	159.12
772.425	39.74
772.75	44.93
773.075	-6.97
773.399	63.1
773.723	31.95
774.048	55.31
774.372	6
774.696	26.76
775.02	34.55
775.345	-4.38
775.669	115
775.993	-43.31
776.317	60.5
776.641	-19.95
776.965	94.24
777.288	21.57
777.612	-136.74
777.936	34.55
778.26	-14.76
778.583	73.48
778.907	57.91
779.23	65.69
779.554	-9.57
779.877	8.6
780.2	29.36
780.524	-40.71
780.847	47.53
781.17	50.12
781.493	91.64
781.816	-48.5
782.139	29.36
782.462	13.79
782.785	-27.74
783.108	3.41
783.431	-25.14
783.754	-22.55
784.076	21.57
784.399	11.19
784.722	26.76
785.044	37.14
785.367	-17.36
785.689	47.53
786.011	83.86
786.334	-97.81
786.656	-32.93
786.978	-51.09
787.3	13.79
787.622	39.74
787.944	73.48
788.266	122.79
788.588	-14.76
788.91	11.19
789.232	29.36
789.554	24.17
789.876	50.12
790.197	65.69
790.519	-25.14
790.841	24.17
791.162	0.81
791.483	-12.17
791.805	-45.9
792.126	55.31
792.448	78.67
792.769	-110.78
793.09	102.03
793.411	-19.95
793.732	6
794.053	13.79
794.374	0.81
794.695	70.88
795.016	-38.12
795.337	3.41
795.658	37.14
795.978	55.31
796.299	-22.55
796.619	-71.86
796.94	52.72
797.261	-58.88
797.581	63.1
797.901	55.31
798.222	11.19
798.542	-51.09
798.862	94.24
799.182	16.38
799.502	-9.57
799.822	6
800.142	13.79
800.462	81.26
800.782	16.38
801.102	3.41
801.422	70.88
801.742	-56.28
802.061	-12.17
802.381	0.81
802.701	-139.33
803.02	29.36
803.339	-27.74
803.659	44.93
803.978	11.19
804.298	-6.97
804.617	102.03
804.936	-66.67
805.255	21.57
805.574	3.41
805.893	-66.67
806.212	50.12
806.531	-32.93
806.85	-43.31
807.169	57.91
807.487	57.91
807.806	24.17
808.125	91.64
808.443	18.98
808.762	-90.02
809.08	24.17
809.399	94.24
809.717	8.6
810.035	18.98
810.354	-66.67
810.672	-196.43
810.99	-372.9
811.308	-541.59
811.626	-775.17
811.944	-686.93
812.262	-585.71
812.58	-463.74
812.898	-193.83
813.216	-170.47
813.533	-38.12
813.851	-30.33
814.169	-9.57
814.486	26.76
814.804	-6.97
815.121	104.62
815.438	-51.09
815.756	-1.78
816.073	-79.64
816.39	37.14
816.707	-38.12
817.025	3.41
817.342	3.41
817.659	-92.62
817.976	-9.57
818.292	-35.52
818.609	16.38
818.926	-4.38
819.243	-139.33
819.559	-167.88
819.876	-58.88
820.193	-17.36
820.509	-95.21
820.826	-92.62
821.142	29.36
821.458	-25.14
821.775	-25.14
822.091	39.74
822.407	18.98
822.723	96.83
823.039	31.95
823.355	44.93
823.671	65.69
823.987	50.12
824.303	0.81
824.619	-51.09
824.935	-4.38
825.25	-71.86
825.566	55.31
825.881	8.6
826.197	-58.88
826.512	-123.76
826.828	31.95
827.143	-25.14
827.458	-84.83
827.774	16.38
828.089	-6.97
828.404	-56.28
828.719	-53.69
829.034	50.12
829.349	11.19
829.664	-30.33
829.979	-123.76
830.294	-256.12
830.608	-250.93
830.923	-97.81
831.238	-66.67
831.552	-71.86
831.867	42.33
832.181	-90.02
832.496	26.76
832.81	63.1
833.124	42.33
833.439	26.76
833.753	26.76
834.067	26.76
834.381	26.76
834.695	50.12
835.009	31.95
835.323	-30.33
835.637	-40.71
835.951	107.22
836.264	70.88
836.578	99.43
836.892	68.29
837.205	31.95
837.519	-35.52
837.832	-74.45
838.146	6
838.459	6
838.772	-105.59
839.086	-4.38
839.399	-1.78
839.712	60.5
840.025	-103
840.338	-1.78
840.651	18.98
840.964	96.83
841.277	-152.31
841.59	135.76
841.902	29.36
842.215	-6.97
842.528	57.91
842.84	-19.95
843.153	78.67
843.465	8.6
843.778	37.14
844.09	6
844.403	81.26
844.715	52.72
845.027	-22.55
845.339	-1.78
845.651	8.6
845.963	-53.69
846.275	125.38
846.587	70.88
846.899	65.69
847.211	-22.55
847.523	18.98
847.834	-45.9
848.146	76.07
848.457	109.81
848.769	13.79
849.08	81.26
849.392	18.98
849.703	-66.67
850.015	21.57
850.326	73.48
850.637	39.74
850.948	-38.12
851.259	-22.55
851.57	-58.88
851.881	115
852.192	-1.78
852.503	146.14
852.814	18.98
853.125	73.48
853.435	8.6
853.746	34.55
854.056	68.29
854.367	102.03
854.677	-82.24
854.988	76.07
855.298	-30.33
855.609	78.67
855.919	13.79
856.229	-92.62
856.539	26.76
856.849	47.53
857.159	26.76
857.469	73.48
857.779	63.1
858.089	47.53
858.399	55.31
858.708	-30.33
859.018	143.55
859.328	37.14
859.637	47.53
859.947	11.19
860.256	68.29
860.566	-110.78
860.875	-32.93
861.184	29.36
861.494	-66.67
861.803	73.48
862.112	0.81
862.421	8.6
862.73	39.74
863.039	8.6
863.348	112.41
863.657	21.57
863.965	-64.07
864.274	55.31
864.583	44.93
864.891	-1.78
865.2	-30.33
865.509	81.26
865.817	31.95
866.125	-45.9
866.434	44.93
866.742	-14.76
867.05	34.55
867.358	26.76
867.666	26.76
867.975	-71.86
868.283	-45.9
868.59	130.57
868.898	16.38
869.206	-19.95
869.514	0.81
869.822	-71.86
870.129	-1.78
870.437	21.57
870.744	-12.17
871.052	76.07
871.359	68.29
871.667	50.12
871.974	-14.76
872.281	24.17
872.589	83.86
872.896	70.88
873.203	24.17
873.51	29.36
873.817	-56.28
874.124	21.57
874.431	-32.93
874.737	104.62
875.044	-12.17
875.351	65.69
875.658	-32.93
875.964	44.93
876.271	50.12
876.577	-1.78
876.884	78.67
877.19	-79.64
877.496	-118.57
877.802	-38.12
878.109	-58.88
878.415	-74.45
878.721	0.81
879.027	-113.38
879.333	-77.05
879.639	-19.95
879.945	-12.17
880.25	-14.76
880.556	52.72
880.862	-56.28
881.167	29.36
881.473	39.74
881.778	31.95
882.084	13.79
882.389	37.14
882.695	76.07
883	107.22
883.305	91.64
883.61	104.62
883.915	13.79
884.22	11.19
884.525	26.76
884.83	70.88
885.135	-14.76
885.44	135.76
885.745	16.38
886.05	6
886.354	55.31
886.659	42.33
886.963	91.64
887.268	29.36
887.572	57.91
887.877	63.1
888.181	16.38
888.485	-38.12
888.789	-58.88
889.093	73.48
889.398	99.43
889.702	81.26
890.006	-45.9
890.309	-4.38
890.613	70.88
890.917	42.33
891.221	18.98
891.525	-27.74
891.828	8.6
892.132	-79.64
892.435	-92.62
892.739	-1.78
893.042	-30.33
893.345	-58.88
893.649	-66.67
893.952	-58.88
894.255	-12.17
894.558	-123.76
894.861	-45.9
895.164	-40.71
895.467	78.67
895.77	153.93
896.073	-19.95
896.376	76.07
896.678	18.98
896.981	-27.74
897.284	-84.83
897.586	24.17
897.889	42.33
898.191	34.55
898.493	26.76
898.796	-17.36
899.098	-40.71
899.4	-22.55
899.702	140.95
900.004	57.91
900.306	-35.52
900.608	83.86
900.91	148.74
901.212	-12.17
901.514	-25.14
901.816	37.14
902.117	-6.97
902.419	52.72
902.721	-32.93
903.022	-4.38
903.323	18.98
903.625	83.86
903.926	44.93
904.227	3.41
904.529	42.33
904.83	107.22
905.131	42.33
905.432	52.72
905.733	21.57
906.034	-71.86
906.335	37.14
906.636	-43.31
906.936	11.19
907.237	-12.17
907.538	89.05
907.838	0.81
908.139	3.41
908.439	89.05
908.74	-38.12
909.04	55.31
909.34	16.38
909.641	125.38
909.941	42.33
910.241	31.95
910.541	-82.24
910.841	-100.4
911.141	-12.17
911.441	70.88
911.741	104.62
912.04	-43.31
912.34	6
912.64	-69.26
912.939	70.88
913.239	-14.76
913.538	-1.78
913.838	115
914.137	63.1
914.436	60.5
914.736	34.55
915.035	3.41
915.334	21.57
915.633	-22.55
915.932	-27.74
916.231	42.33
916.53	-25.14
916.829	76.07
917.128	18.98
917.426	21.57
917.725	-19.95
918.024	52.72
918.322	73.48
918.621	29.36
918.919	68.29
919.217	42.33
919.516	112.41
919.814	-69.26
920.112	76.07
920.41	26.76
920.709	60.5
921.007	29.36
921.305	-82.24
921.602	42.33
921.9	42.33
922.198	-69.26
922.496	-53.69
922.794	34.55
923.091	78.67
923.389	-43.31
923.686	42.33
923.984	-1.78
924.281	37.14
924.578	42.33
924.876	-38.12
925.173	73.48
925.47	13.79
925.767	18.98
926.064	18.98
926.361	78.67
926.658	52.72
926.955	83.86
927.252	65.69
927.549	34.55
927.845	76.07
928.142	-4.38
928.438	-40.71
928.735	11.19
929.031	0.81
929.328	73.48
929.624	6
929.92	29.36
930.217	104.62
930.513	125.38
930.809	63.1
931.105	44.93
931.401	-27.74
931.697	-27.74
931.993	130.57
932.289	-131.55
932.584	-14.76
932.88	-51.09
933.176	21.57
933.471	89.05
933.767	52.72
934.062	94.24
934.358	37.14
934.653	-19.95
934.948	52.72
935.244	16.38
935.539	29.36
935.834	13.79
936.129	55.31
936.424	-4.38
936.719	-58.88
937.014	44.93
937.309	47.53
937.603	0.81
937.898	-25.14
938.193	37.14
938.487	-35.52
938.782	18.98
939.076	-71.86
939.371	-43.31
939.665	21.57
939.959	60.5
940.254	8.6
940.548	117.6
940.842	13.79
941.136	76.07
941.43	44.93
941.724	-32.93
942.018	-45.9
942.311	-19.95
942.605	-40.71
942.899	104.62
943.193	112.41
943.486	-1.78
943.78	3.41
944.073	-9.57
944.367	-9.57
944.66	-6.97
944.953	138.36
945.246	52.72
945.54	24.17
945.833	31.95
946.126	-14.76
946.419	42.33
946.712	-22.55
947.005	-51.09
947.297	3.41
947.59	76.07
947.883	164.31
948.176	3.41
948.468	37.14
948.761	0.81
949.053	-19.95
949.346	44.93
949.638	-40.71
949.93	-40.71
950.222	0.81
950.515	0.81
950.807	-19.95
951.099	29.36
951.391	151.33
951.683	3.41
951.975	8.6
952.266	172.1
952.558	50.12
952.85	68.29
953.141	6
953.433	76.07
953.725	-9.57
954.016	3.41
954.307	-19.95
954.599	39.74
954.89	89.05
955.181	-61.47
955.472	31.95
955.763	-61.47
956.055	-38.12
956.346	-12.17
956.636	16.38
956.927	60.5
957.218	8.6
957.509	73.48
957.8	-6.97
958.09	42.33
958.381	-12.17
958.671	29.36
958.962	34.55
959.252	-9.57
959.542	211.03
959.833	24.17
960.123	-32.93
960.413	73.48
960.703	6
960.993	0.81
961.283	31.95
961.573	50.12
961.863	31.95
962.153	29.36
962.442	11.19
962.732	146.14
963.022	-27.74
963.311	-17.36
963.601	-74.45
963.89	3.41
964.18	96.83
964.469	-19.95
964.758	57.91
965.047	86.45
965.337	16.38
965.626	-4.38
965.915	-79.64
966.204	-1.78
966.493	57.91
966.781	73.48
967.07	47.53
967.359	26.76
967.648	29.36
967.936	-4.38
968.225	-6.97
968.513	57.91
968.802	-61.47
969.09	-12.17
969.378	-48.5
969.666	42.33
969.955	156.53
970.243	-1.78
970.531	60.5
970.819	0.81
971.107	-9.57
971.395	-12.17
971.683	44.93
971.97	34.55
972.258	-43.31
972.546	52.72
972.833	-12.17
973.121	21.57
973.408	-61.47
973.696	8.6
973.983	42.33
974.27	44.93
974.558	89.05
974.845	-45.9
975.132	29.36
975.419	55.31
975.706	6
975.993	-58.88
976.28	-9.57
976.566	-6.97
976.853	6
977.14	-22.55
977.426	-103
977.713	-1.78
978	16.38
978.286	-30.33
978.572	102.03
978.859	120.19
979.145	55.31
979.431	-25.14
979.717	50.12
980.003	-74.45
980.289	44.93
980.575	21.57
980.861	47.53
981.147	-79.64
981.433	-90.02
981.719	-35.52
982.004	-79.64
982.29	55.31
982.575	21.57
982.861	68.29
983.146	-25.14
983.432	-40.71
983.717	83.86
984.002	-40.71
984.287	-4.38
984.573	-17.36
984.858	18.98
985.143	76.07
985.428	52.72
985.712	31.95
985.997	-4.38
986.282	34.55
986.567	-4.38
986.851	31.95
987.136	16.38
987.42	-12.17
987.705	37.14
987.989	3.41
988.274	-43.31
988.558	-1.78
988.842	60.5
989.126	6
989.41	31.95
989.694	24.17
989.978	-48.5
990.262	-58.88
990.546	34.55
990.83	31.95
991.114	-19.95
991.397	26.76
991.681	42.33
991.965	0.81
992.248	16.38
992.531	52.72
992.815	-48.5
993.098	18.98
993.381	-25.14
993.665	52.72
993.948	44.93
994.231	16.38
994.514	-1.78
994.797	-45.9
995.08	55.31
995.362	31.95
995.645	42.33
995.928	13.79
996.211	-9.57
996.493	6
996.776	60.5
997.058	68.29
997.34	-14.76
997.623	21.57
997.905	-38.12
998.187	60.5
998.469	24.17
998.752	-43.31
999.034	6
999.316	11.19
999.597	24.17
999.879	-35.52
1000.161	3.41
1000.443	-43.31
1000.725	-19.95
1001.006	11.19
1001.288	83.86
1001.569	31.95
1001.851	91.64
1002.132	70.88
1002.413	34.55
1002.694	65.69
1002.976	107.22
1003.257	44.93
1003.538	18.98
1003.819	-56.28
1004.1	-14.76
1004.381	47.53
1004.661	-92.62
1004.942	-69.26
1005.223	26.76
1005.504	11.19
1005.784	-6.97
1006.065	-38.12
1006.345	177.29
1006.625	44.93
1006.906	-48.5
1007.186	63.1
1007.466	31.95
1007.746	-22.55
1008.026	47.53
1008.306	31.95
1008.586	-40.71
1008.866	44.93
1009.146	3.41
1009.426	-32.93
1009.706	107.22
1009.985	-35.52
1010.265	-40.71
1010.544	16.38
1010.824	3.41
1011.103	37.14
1011.383	-43.31
1011.662	29.36
1011.941	8.6
1012.22	78.67
1012.499	122.79
1012.778	18.98
1013.057	39.74
1013.336	13.79
1013.615	-35.52
1013.894	-48.5
1014.173	-141.93
1014.451	18.98
1014.73	0.81
1015.009	57.91
1015.287	42.33
1015.566	-35.52
1015.844	-64.07
1016.122	26.76
1016.4	-14.76
1016.679	-9.57
1016.957	-9.57
1017.235	-12.17
1017.513	-4.38
1017.791	55.31
1018.069	21.57
1018.346	99.43
1018.624	-1.78
1018.902	8.6
1019.179	125.38
1019.457	-6.97
1019.735	37.14
1020.012	117.6
1020.289	29.36
1020.567	29.36
1020.844	29.36
