Data from Subt2_19-11-50-991.txt Node
Date: Wed Feb 22 19:11:50 CST 2023
User: Optics Lab
Spectrometer: FLMS14302
Trigger mode: 0
Integration Time (sec): 1.000000E-1
Scans to average: 1
Electric dark correction enabled: true
Nonlinearity correction enabled: false
Boxcar width: 0
XAxis mode: Wavelengths
Number of Pixels in Spectrum: 2048
>>>>>Begin Spectral Data<<<<<
338.578	-18.49
338.961	-18.49
339.343	-18.49
339.725	10.06
340.108	38.6
340.49	-49.63
340.872	48.99
341.254	43.79
341.636	-60.01
342.018	20.44
342.4	-49.63
342.782	-26.28
343.164	28.22
343.546	-2.92
343.928	155.39
344.309	-65.21
344.691	-72.99
345.073	61.96
345.455	-0.32
345.836	-31.47
346.218	-0.32
346.599	-28.87
346.981	56.77
347.362	69.75
347.744	-104.13
348.125	67.15
348.506	48.99
348.888	108.68
349.269	-0.32
349.65	38.6
350.031	43.79
350.413	-10.71
350.794	43.79
351.175	-21.09
351.556	30.82
351.937	-2.92
352.318	33.41
352.698	33.41
353.079	-10.71
353.46	-60.01
353.841	10.06
354.222	-44.44
354.602	-80.78
354.983	72.34
355.363	-8.11
355.744	25.63
356.124	20.44
356.505	-44.44
356.885	12.65
357.266	43.79
357.646	111.27
358.026	116.46
358.407	30.82
358.787	90.51
359.167	38.6
359.547	-47.04
359.927	43.79
360.307	17.84
360.687	-36.66
361.067	61.96
361.447	-5.51
361.827	33.41
362.207	-21.09
362.587	103.49
362.966	85.32
363.346	38.6
363.726	90.51
364.105	-47.04
364.485	74.94
364.865	-75.59
365.244	-0.32
365.624	25.63
366.003	-8.11
366.382	43.79
366.762	87.91
367.141	-8.11
367.52	132.03
367.899	-44.44
368.279	59.37
368.658	-8.11
369.037	54.18
369.416	-31.47
369.795	-0.32
370.174	103.49
370.553	7.46
370.932	85.32
371.311	-8.11
371.689	30.82
372.068	4.87
372.447	-5.51
372.825	-23.68
373.204	2.27
373.583	-28.87
373.961	98.29
374.34	90.51
374.718	-98.94
375.097	106.08
375.475	126.84
375.853	59.37
376.232	61.96
376.61	38.6
376.988	59.37
377.366	38.6
377.744	41.2
378.122	4.87
378.5	-41.85
378.878	-21.09
379.256	15.25
379.634	56.77
380.012	20.44
380.39	10.06
380.768	-62.61
381.145	20.44
381.523	-57.42
381.901	82.72
382.278	15.25
382.656	69.75
383.033	82.72
383.411	77.53
383.788	-75.59
384.166	10.06
384.543	103.49
384.921	80.13
385.298	157.99
385.675	4.87
386.052	-78.18
386.429	72.34
386.806	46.39
387.184	23.03
387.561	95.7
387.938	-8.11
388.314	-18.49
388.691	-28.87
389.068	59.37
389.445	-18.49
389.822	12.65
390.198	74.94
390.575	-28.87
390.952	56.77
391.328	-39.25
391.705	90.51
392.081	116.46
392.458	28.22
392.834	-54.82
393.211	85.32
393.587	30.82
393.963	-148.25
394.34	-10.71
394.716	41.2
395.092	64.56
395.468	46.39
395.844	-0.32
396.22	61.96
396.596	23.03
396.972	-18.49
397.348	-54.82
397.724	-18.49
398.1	2.27
398.476	90.51
398.851	43.79
399.227	10.06
399.603	64.56
399.978	7.46
400.354	15.25
400.729	48.99
401.105	54.18
401.48	-8.11
401.856	20.44
402.231	33.41
402.606	-47.04
402.982	38.6
403.357	-13.3
403.732	-13.3
404.107	54.18
404.482	41.2
404.857	36.01
405.232	-5.51
405.607	30.82
405.982	23.03
406.357	-39.25
406.732	12.65
407.107	-49.63
407.482	-0.32
407.856	-13.3
408.231	-2.92
408.606	33.41
408.98	-23.68
409.355	-13.3
409.729	51.58
410.104	93.1
410.478	33.41
410.852	51.58
411.227	-41.85
411.601	69.75
411.975	-31.47
412.35	17.84
412.724	-98.94
413.098	51.58
413.472	67.15
413.846	-44.44
414.22	77.53
414.594	72.34
414.968	46.39
415.342	-39.25
415.715	46.39
416.089	59.37
416.463	-13.3
416.837	-78.18
417.21	2.27
417.584	-18.49
417.957	46.39
418.331	10.06
418.704	59.37
419.078	132.03
419.451	12.65
419.824	69.75
420.198	-23.68
420.571	10.06
420.944	72.34
421.317	-75.59
421.69	-47.04
422.064	4.87
422.437	-13.3
422.81	-111.92
423.182	36.01
423.555	93.1
423.928	33.41
424.301	15.25
424.674	48.99
425.047	-80.78
425.419	-13.3
425.792	28.22
426.164	33.41
426.537	-26.28
426.91	-75.59
427.282	25.63
427.654	-10.71
428.027	2.27
428.399	-8.11
428.771	61.96
429.144	93.1
429.516	116.46
429.888	-23.68
430.26	-8.11
430.632	-18.49
431.004	20.44
431.376	54.18
431.748	77.53
432.12	12.65
432.492	33.41
432.864	-0.32
433.236	-70.4
433.607	-21.09
433.979	2.27
434.351	137.22
434.722	51.58
435.094	85.32
435.465	46.39
435.837	126.84
436.208	318.89
436.58	357.82
436.951	147.6
437.322	108.68
437.693	43.79
438.065	-26.28
438.436	25.63
438.807	106.08
439.178	129.44
439.549	-18.49
439.92	72.34
440.291	-21.09
440.662	12.65
441.033	147.6
441.403	74.94
441.774	61.96
442.145	77.53
442.516	85.32
442.886	189.13
443.257	116.46
443.627	46.39
443.998	15.25
444.368	-13.3
444.739	43.79
445.109	106.08
445.479	150.2
445.85	139.82
446.22	-15.9
446.59	23.03
446.96	230.65
447.33	142.41
447.7	165.77
448.07	119.06
448.44	142.41
448.81	126.84
449.18	150.2
449.55	77.53
449.92	155.39
450.29	103.49
450.659	126.84
451.029	93.1
451.399	207.29
451.768	228.06
452.138	160.58
452.507	142.41
452.877	243.63
453.246	321.49
453.615	170.96
453.985	129.44
454.354	321.49
454.723	243.63
455.092	269.58
455.462	119.06
455.831	228.06
456.2	290.34
456.569	241.03
456.938	243.63
457.307	241.03
457.675	238.44
458.044	212.49
458.413	199.51
458.782	191.72
459.15	178.75
459.519	230.65
459.888	145.01
460.256	241.03
460.625	233.25
460.993	157.99
461.362	178.75
461.73	217.68
462.098	137.22
462.467	168.37
462.835	163.18
463.203	241.03
463.571	152.79
463.939	48.99
464.307	106.08
464.675	269.58
465.043	199.51
465.411	248.82
465.779	181.34
466.147	157.99
466.515	126.84
466.883	173.56
467.25	316.29
467.618	157.99
467.986	168.37
468.353	220.27
468.721	170.96
469.088	160.58
469.456	157.99
469.823	199.51
470.19	157.99
470.558	189.13
470.925	165.77
471.292	168.37
471.659	225.46
472.027	241.03
472.394	126.84
472.761	181.34
473.128	194.32
473.495	207.29
473.862	85.32
474.228	230.65
474.595	233.25
474.962	290.34
475.329	170.96
475.695	178.75
476.062	121.65
476.429	124.25
476.795	145.01
477.162	186.53
477.528	106.08
477.895	145.01
478.261	41.2
478.627	106.08
478.994	98.29
479.36	157.99
479.726	90.51
480.092	98.29
480.458	85.32
480.824	165.77
481.19	48.99
481.556	191.72
481.922	155.39
482.288	121.65
482.654	220.27
483.02	191.72
483.385	176.15
483.751	181.34
484.117	207.29
484.482	43.79
484.848	228.06
485.213	196.91
485.579	222.87
485.944	74.94
486.31	168.37
486.675	137.22
487.04	225.46
487.406	186.53
487.771	256.6
488.136	251.41
488.501	178.75
488.866	124.25
489.231	238.44
489.596	160.58
489.961	256.6
490.326	189.13
490.691	124.25
491.056	209.89
491.42	160.58
491.785	196.91
492.15	163.18
492.514	264.39
492.879	215.08
493.243	43.79
493.608	186.53
493.972	124.25
494.337	228.06
494.701	36.01
495.065	142.41
495.43	186.53
495.794	111.27
496.158	142.41
496.522	134.63
496.886	87.91
497.25	82.72
497.614	67.15
497.978	248.82
498.342	82.72
498.706	137.22
499.07	173.56
499.433	108.68
499.797	209.89
500.161	100.89
500.524	59.37
500.888	160.58
501.251	173.56
501.615	116.46
501.978	212.49
502.342	30.82
502.705	272.18
503.068	233.25
503.432	121.65
503.795	155.39
504.158	251.41
504.521	241.03
504.884	248.82
505.247	160.58
505.61	85.32
505.973	261.79
506.336	199.51
506.699	93.1
507.062	139.82
507.424	178.75
507.787	85.32
508.15	116.46
508.512	160.58
508.875	160.58
509.238	189.13
509.6	142.41
509.962	132.03
510.325	98.29
510.687	137.22
511.049	54.18
511.412	196.91
511.774	87.91
512.136	202.1
512.498	183.94
512.86	69.75
513.222	98.29
513.584	220.27
513.946	98.29
514.308	98.29
514.67	170.96
515.032	176.15
515.393	272.18
515.755	326.68
516.117	165.77
516.478	228.06
516.84	176.15
517.201	157.99
517.563	269.58
517.924	243.63
518.286	145.01
518.647	204.7
519.008	100.89
519.37	147.6
519.731	150.2
520.092	56.77
520.453	238.44
520.814	170.96
521.175	137.22
521.536	194.32
521.897	274.77
522.258	199.51
522.619	186.53
522.979	147.6
523.34	207.29
523.701	147.6
524.061	157.99
524.422	181.34
524.783	142.41
525.143	196.91
525.504	194.32
525.864	277.37
526.224	165.77
526.585	150.2
526.945	181.34
527.305	119.06
527.665	238.44
528.025	212.49
528.385	212.49
528.746	100.89
529.106	222.87
529.465	160.58
529.825	215.08
530.185	178.75
530.545	139.82
530.905	238.44
531.264	300.72
531.624	196.91
531.984	137.22
532.343	95.7
532.703	111.27
533.062	145.01
533.422	181.34
533.781	168.37
534.141	199.51
534.5	222.87
534.859	248.82
535.218	126.84
535.577	189.13
535.937	241.03
536.296	132.03
536.655	176.15
537.014	256.6
537.373	183.94
537.731	230.65
538.09	264.39
538.449	194.32
538.808	290.34
539.166	165.77
539.525	246.22
539.884	316.29
540.242	202.1
540.601	274.77
540.959	274.77
541.318	311.1
541.676	287.75
542.034	394.15
542.393	521.32
542.751	601.77
543.109	552.46
543.467	539.49
543.825	622.53
544.183	599.18
544.541	523.91
544.899	526.51
545.257	521.32
545.615	383.77
545.973	575.82
546.331	500.56
546.688	549.87
547.046	438.27
547.404	272.18
547.761	266.99
548.119	178.75
548.476	363.01
548.834	318.89
549.191	350.03
549.548	259.2
549.906	189.13
550.263	228.06
550.62	264.39
550.977	264.39
551.334	248.82
551.691	272.18
552.048	266.99
552.405	261.79
552.762	342.25
553.119	183.94
553.476	230.65
553.833	233.25
554.189	189.13
554.546	225.46
554.903	165.77
555.259	126.84
555.616	181.34
555.972	126.84
556.329	181.34
556.685	220.27
557.042	132.03
557.398	178.75
557.754	204.7
558.11	98.29
558.467	142.41
558.823	207.29
559.179	126.84
559.535	98.29
559.891	139.82
560.247	181.34
560.603	196.91
560.958	106.08
561.314	74.94
561.67	142.41
562.026	194.32
562.381	111.27
562.737	163.18
563.092	95.7
563.448	160.58
563.803	124.25
564.159	145.01
564.514	186.53
564.869	152.79
565.225	160.58
565.58	17.84
565.935	160.58
566.29	121.65
566.645	129.44
567	108.68
567.355	124.25
567.71	152.79
568.065	150.2
568.42	2.27
568.775	176.15
569.13	150.2
569.484	119.06
569.839	111.27
570.193	111.27
570.548	168.37
570.903	90.51
571.257	82.72
571.611	181.34
571.966	191.72
572.32	17.84
572.674	103.49
573.029	85.32
573.383	20.44
573.737	15.25
574.091	103.49
574.445	108.68
574.799	215.08
575.153	170.96
575.507	113.87
575.861	132.03
576.215	181.34
576.568	108.68
576.922	85.32
577.276	-0.32
577.629	124.25
577.983	145.01
578.336	15.25
578.69	74.94
579.043	160.58
579.397	98.29
579.75	87.91
580.103	108.68
580.456	137.22
580.81	145.01
581.163	46.39
581.516	157.99
581.869	87.91
582.222	147.6
582.575	25.63
582.928	106.08
583.281	85.32
583.633	33.41
583.986	100.89
584.339	2.27
584.691	59.37
585.044	33.41
585.397	74.94
585.749	145.01
586.102	147.6
586.454	103.49
586.806	95.7
587.159	-39.25
587.511	-67.8
587.863	-39.25
588.215	-72.99
588.567	-2.92
588.92	-13.3
589.272	-28.87
589.624	90.51
589.975	-0.32
590.327	-31.47
590.679	-41.85
591.031	-8.11
591.383	-98.94
591.734	-23.68
592.086	-60.01
592.438	-179.4
592.789	-117.11
593.141	-163.82
593.492	-176.8
593.844	-215.73
594.195	-171.61
594.546	-150.85
594.898	-143.06
595.249	-85.97
595.6	-91.16
595.951	-83.37
596.302	20.44
596.653	-117.11
597.004	-0.32
597.355	-8.11
597.706	-104.13
598.057	-62.61
598.408	-140.47
598.758	-176.8
599.109	-288.4
599.46	-265.04
599.81	-309.16
600.161	-399.99
600.511	-444.11
600.862	-309.16
601.212	-249.47
601.562	-210.54
601.913	-181.99
602.263	-96.35
602.613	-143.06
602.963	-93.75
603.313	-124.9
603.663	-130.09
604.013	-57.42
604.363	-127.49
604.713	-143.06
605.063	-104.13
605.413	-145.66
605.763	-148.25
606.112	-285.8
606.462	-189.78
606.812	-275.42
607.161	-257.25
607.511	-301.37
607.86	-467.47
608.21	-597.23
608.559	-558.3
608.908	-880.11
609.258	-1259.02
609.607	-1406.94
609.956	-2081.71
610.305	-3179.49
610.654	-5484.07
611.003	-9441.81
611.352	-14585.57
611.701	-17946.41
612.05	-17154.86
612.399	-14902.19
612.748	-11837.21
613.097	-9441.81
613.445	-7809.4
613.794	-6330.11
614.143	-5844.8
614.491	-5403.61
614.84	-4905.33
615.188	-4599.09
615.537	-4248.73
615.885	-3659.61
616.233	-3000.42
616.581	-2579.99
616.93	-2201.09
617.278	-1894.85
617.626	-1775.47
617.974	-1534.11
618.322	-1380.99
618.67	-1471.83
619.018	-1422.52
619.366	-1539.3
619.714	-1419.92
620.061	-1586.02
620.409	-1591.21
620.757	-1684.64
621.104	-1822.18
621.452	-1829.97
621.799	-1554.87
622.147	-1666.47
622.494	-1547.09
622.842	-1627.54
623.189	-1484.8
623.536	-1471.83
623.884	-1393.97
624.231	-1391.37
624.578	-1414.73
624.925	-1373.21
625.272	-1238.25
625.619	-1240.85
625.966	-1310.92
626.313	-1079.94
626.66	-1085.13
627.007	-1038.42
627.353	-1118.87
627.7	-1064.37
628.047	-1150.02
628.393	-1030.63
628.74	-1111.09
629.086	-1108.49
629.433	-1020.25
629.779	-1295.35
630.125	-1370.61
630.472	-1689.83
630.818	-2022.02
631.164	-2688.99
631.51	-3013.4
631.857	-2956.3
632.203	-2432.06
632.549	-1741.73
632.895	-1220.09
633.24	-747.75
633.586	-620.59
633.932	-451.9
634.278	-184.59
634.624	-265.04
634.969	-197.56
635.315	2.27
635.66	-21.09
636.006	38.6
636.351	85.32
636.697	147.6
637.042	282.56
637.388	269.58
637.733	778.25
638.078	1273.94
638.423	9864.18
638.768	24984.05
639.113	29115.67
639.458	39605.63
639.803	43905.95
640.148	30361.39
640.493	17299.55
640.838	10427.35
641.183	6531.89
641.527	3853.61
641.872	2013.58
642.217	908.01
642.561	536.89
642.906	147.6
643.25	38.6
643.595	51.58
643.939	-18.49
644.284	-93.75
644.628	111.27
644.972	-36.66
645.316	-166.42
645.66	-85.97
646.004	-171.61
646.348	-135.28
646.692	-143.06
647.036	-153.44
647.38	-202.75
647.724	-215.73
648.068	-93.75
648.412	-184.59
648.755	-200.16
649.099	-202.75
649.443	-169.02
649.786	-239.09
650.13	-387.02
650.473	-664.71
650.816	-934.61
651.16	-898.28
651.503	-859.35
651.846	-669.9
652.189	-493.42
652.533	-425.94
652.876	-449.3
653.219	-454.49
653.562	-412.97
653.905	-397.4
654.247	-428.54
654.59	-254.66
654.933	-288.4
655.276	-205.35
655.619	-187.18
655.961	-67.8
656.304	-137.87
656.646	-70.4
656.989	-179.4
657.331	-10.71
657.674	-135.28
658.016	-233.9
658.358	-179.4
658.701	-228.71
659.043	-233.9
659.385	-220.92
659.727	-101.54
660.069	-161.23
660.411	-171.61
660.753	-98.94
661.095	-114.51
661.437	-91.16
661.778	-220.92
662.12	-285.8
662.462	-428.54
662.804	-625.78
663.145	-573.87
663.487	-446.71
663.828	-449.3
664.17	-420.75
664.511	-353.28
664.852	-280.61
665.194	-316.94
665.535	-114.51
665.876	-166.42
666.217	-179.4
666.558	-169.02
666.899	-267.63
667.24	-228.71
667.581	-148.25
667.922	-259.85
668.263	-171.61
668.604	-205.35
668.944	-244.28
669.285	-161.23
669.626	-371.44
669.966	-127.49
670.307	-163.82
670.647	-176.8
670.988	-161.23
671.328	-70.4
671.669	-156.04
672.009	-241.68
672.349	-119.71
672.689	-34.06
673.029	-169.02
673.369	-8.11
673.71	-233.9
674.049	-83.37
674.389	-150.85
674.729	-156.04
675.069	-91.16
675.409	-140.47
675.749	-44.44
676.088	-13.3
676.428	-169.02
676.768	-127.49
677.107	-184.59
677.447	-145.66
677.786	-83.37
678.125	-161.23
678.465	-31.47
678.804	-132.68
679.143	-220.92
679.482	-213.13
679.821	-98.94
680.161	-135.28
680.5	-132.68
680.839	-78.18
681.177	-275.42
681.516	-83.37
681.855	-140.47
682.194	-106.73
682.533	-218.32
682.871	-215.73
683.21	-140.47
683.549	-96.35
683.887	-207.94
684.225	-111.92
684.564	-75.59
684.902	-67.8
685.241	10.06
685.579	-5.51
685.917	-2.92
686.255	-181.99
686.593	-130.09
686.931	-194.97
687.269	-280.61
687.607	-394.8
687.945	-472.66
688.283	-464.87
688.621	-542.73
688.959	-425.94
689.296	-387.02
689.634	-218.32
689.972	-200.16
690.309	-181.99
690.647	-41.85
690.984	-98.94
691.322	-124.9
691.659	-72.99
691.996	-8.11
692.333	-39.25
692.671	-78.18
693.008	-166.42
693.345	-98.94
693.682	-335.11
694.019	-303.97
694.356	-303.97
694.693	-392.21
695.03	-298.78
695.366	-270.23
695.703	-176.8
696.04	-36.66
696.376	-174.21
696.713	-117.11
697.05	-98.94
697.386	-104.13
697.722	-36.66
698.059	17.84
698.395	25.63
698.731	-54.82
699.068	7.46
699.404	-47.04
699.74	-26.28
700.076	38.6
700.412	-31.47
700.748	10.06
701.084	51.58
701.42	20.44
701.756	30.82
702.091	-106.73
702.427	-34.06
702.763	-130.09
703.098	-140.47
703.434	-83.37
703.769	-88.56
704.105	-104.13
704.44	-158.63
704.776	-171.61
705.111	-213.13
705.446	-223.52
705.781	-329.92
706.117	-540.13
706.452	-547.92
706.787	-760.73
707.122	-1183.75
707.457	-1108.49
707.792	-1310.92
708.126	-1196.73
708.461	-991.71
708.796	-1113.68
709.131	-1404.35
709.465	-1505.56
709.8	-1541.9
710.134	-1155.21
710.469	-1064.37
710.803	-732.18
711.138	-615.4
711.472	-511.59
711.806	-592.04
712.14	-729.59
712.475	-1181.16
712.809	-1240.85
713.143	-1121.47
713.477	-921.63
713.811	-690.66
714.145	-625.78
714.479	-412.97
714.812	-215.73
715.146	-184.59
715.48	-26.28
715.814	-166.42
716.147	-70.4
716.481	-8.11
716.814	-8.11
717.148	-5.51
717.481	85.32
717.814	-28.87
718.148	-91.16
718.481	-39.25
718.814	-52.23
719.147	54.18
719.48	-49.63
719.813	-148.25
720.146	-8.11
720.479	-21.09
720.812	-8.11
721.145	-106.73
721.478	56.77
721.81	-49.63
722.143	82.72
722.476	48.99
722.808	-5.51
723.141	-57.42
723.473	-70.4
723.806	10.06
724.138	36.01
724.47	-21.09
724.803	-18.49
725.135	33.41
725.467	-57.42
725.799	-28.87
726.131	-26.28
726.463	-111.92
726.795	2.27
727.127	93.1
727.459	147.6
727.791	-52.23
728.122	7.46
728.454	100.89
728.786	-28.87
729.117	-49.63
729.449	-72.99
729.78	-36.66
730.112	30.82
730.443	-2.92
730.774	7.46
731.106	-49.63
731.437	64.56
731.768	-52.23
732.099	20.44
732.43	25.63
732.761	-28.87
733.092	-28.87
733.423	-47.04
733.754	-62.61
734.085	-60.01
734.416	-13.3
734.746	43.79
735.077	-15.9
735.407	-41.85
735.738	-34.06
736.068	4.87
736.399	28.22
736.729	-5.51
737.06	72.34
737.39	-47.04
737.72	-5.51
738.05	-47.04
738.38	-57.42
738.71	38.6
739.041	-21.09
739.37	-88.56
739.7	-57.42
740.03	15.25
740.36	-52.23
740.69	48.99
741.02	-5.51
741.349	-60.01
741.679	51.58
742.008	15.25
742.338	72.34
742.667	46.39
742.997	-96.35
743.326	-101.54
743.655	25.63
743.984	10.06
744.314	-96.35
744.643	30.82
744.972	64.56
745.301	-137.87
745.63	-60.01
745.959	-62.61
746.288	-75.59
746.616	-60.01
746.945	61.96
747.274	38.6
747.603	-8.11
747.931	-5.51
748.26	23.03
748.588	87.91
748.917	113.87
749.245	43.79
749.573	4.87
749.902	33.41
750.23	4.87
750.558	10.06
750.886	-60.01
751.214	93.1
751.542	-44.44
751.87	23.03
752.198	-62.61
752.526	-39.25
752.854	-93.75
753.182	41.2
753.509	54.18
753.837	-8.11
754.165	-23.68
754.492	-49.63
754.82	-8.11
755.147	-70.4
755.474	-13.3
755.802	-10.71
756.129	12.65
756.456	85.32
756.783	106.08
757.111	25.63
757.438	-47.04
757.765	64.56
758.092	64.56
758.418	-96.35
758.745	-67.8
759.072	-49.63
759.399	-127.49
759.726	-169.02
760.052	-368.85
760.379	-485.63
760.705	-568.68
761.032	-405.18
761.358	-239.09
761.685	-257.25
762.011	-163.82
762.337	-158.63
762.663	-117.11
762.99	-15.9
763.316	12.65
763.642	38.6
763.968	51.58
764.294	-72.99
764.62	-67.8
764.946	-70.4
765.271	41.2
765.597	72.34
765.923	-93.75
766.248	2.27
766.574	23.03
766.9	10.06
767.225	10.06
767.55	48.99
767.876	28.22
768.201	85.32
768.526	20.44
768.852	64.56
769.177	-15.9
769.502	-36.66
769.827	-44.44
770.152	-145.66
770.477	-148.25
770.802	-60.01
771.127	126.84
771.451	41.2
771.776	72.34
772.101	46.39
772.425	-122.3
772.75	69.75
773.075	-15.9
773.399	-0.32
773.723	67.15
774.048	48.99
774.372	-21.09
774.696	-34.06
775.02	15.25
775.345	25.63
775.669	51.58
775.993	-44.44
776.317	103.49
776.641	7.46
776.965	17.84
777.288	59.37
777.612	-52.23
777.936	17.84
778.26	-5.51
778.583	4.87
778.907	30.82
779.23	30.82
779.554	-0.32
779.877	-15.9
780.2	7.46
780.524	-41.85
780.847	51.58
781.17	36.01
781.493	-44.44
781.816	-0.32
782.139	25.63
782.462	-8.11
782.785	-67.8
783.108	-62.61
783.431	-39.25
783.754	67.15
784.076	-8.11
784.399	-5.51
784.722	46.39
785.044	54.18
785.367	41.2
785.689	48.99
786.011	-47.04
786.334	-8.11
786.656	7.46
786.978	-75.59
787.3	-41.85
787.622	23.03
787.944	-60.01
788.266	108.68
788.588	30.82
788.91	23.03
789.232	54.18
789.554	17.84
789.876	48.99
790.197	64.56
790.519	54.18
790.841	-18.49
791.162	51.58
791.483	20.44
791.805	-23.68
792.126	106.08
792.448	-34.06
792.769	10.06
793.09	46.39
793.411	25.63
793.732	23.03
794.053	41.2
794.374	56.77
794.695	90.51
795.016	-65.21
795.337	23.03
795.658	-52.23
795.978	95.7
796.299	-57.42
796.619	-5.51
796.94	80.13
797.261	-91.16
797.581	59.37
797.901	80.13
798.222	-109.32
798.542	61.96
798.862	28.22
799.182	51.58
799.502	36.01
799.822	-72.99
800.142	15.25
800.462	93.1
800.782	-21.09
801.102	38.6
801.422	74.94
801.742	17.84
802.061	-31.47
802.381	20.44
802.701	25.63
803.02	59.37
803.339	-62.61
803.659	-23.68
803.978	-44.44
804.298	-0.32
804.617	103.49
804.936	2.27
805.255	51.58
805.574	15.25
805.893	-28.87
806.212	74.94
806.531	-54.82
806.85	-62.61
807.169	17.84
807.487	-34.06
807.806	-65.21
808.125	20.44
808.443	41.2
808.762	-119.71
809.08	-88.56
809.399	-31.47
809.717	-21.09
810.035	15.25
810.354	-18.49
810.672	-124.9
810.99	-371.44
811.308	-496.02
811.626	-752.94
811.944	-698.44
812.262	-625.78
812.58	-496.02
812.898	-267.63
813.216	-109.32
813.533	-83.37
813.851	-57.42
814.169	-44.44
814.486	64.56
814.804	20.44
815.121	56.77
815.438	15.25
815.756	98.29
816.073	-70.4
816.39	17.84
816.707	64.56
817.025	2.27
817.342	10.06
817.659	-18.49
817.976	30.82
818.292	-101.54
818.609	-65.21
818.926	17.84
819.243	-117.11
819.559	-145.66
819.876	-54.82
820.193	-26.28
820.509	-98.94
820.826	-41.85
821.142	77.53
821.458	-10.71
821.775	59.37
822.091	77.53
822.407	-88.56
822.723	38.6
823.039	-10.71
823.355	56.77
823.671	41.2
823.987	54.18
824.303	-0.32
824.619	12.65
824.935	72.34
825.25	-83.37
825.566	48.99
825.881	-98.94
826.197	-23.68
826.512	-78.18
826.828	2.27
827.143	25.63
827.458	2.27
827.774	-47.04
828.089	116.46
828.404	-70.4
828.719	25.63
829.034	-2.92
829.349	-2.92
829.664	-49.63
829.979	-137.87
830.294	-262.44
830.608	-192.37
830.923	-109.32
831.238	-91.16
831.552	-109.32
831.867	-47.04
832.181	-106.73
832.496	-54.82
832.81	80.13
833.124	30.82
833.439	-10.71
833.753	25.63
834.067	119.06
834.381	-52.23
834.695	-26.28
835.009	4.87
835.323	2.27
835.637	-8.11
835.951	-2.92
836.264	7.46
836.578	87.91
836.892	43.79
837.205	23.03
837.519	36.01
837.832	-21.09
838.146	28.22
838.459	-23.68
838.772	-96.35
839.086	7.46
839.399	-47.04
839.712	-72.99
840.025	-31.47
840.338	30.82
840.651	51.58
840.964	48.99
841.277	-117.11
841.59	116.46
841.902	80.13
842.215	72.34
842.528	98.29
842.84	-67.8
843.153	-13.3
843.465	4.87
843.778	90.51
844.09	28.22
844.403	85.32
844.715	46.39
845.027	-23.68
845.339	-67.8
845.651	41.2
845.963	43.79
846.275	77.53
846.587	10.06
846.899	36.01
847.211	-18.49
847.523	28.22
847.834	4.87
848.146	10.06
848.457	124.25
848.769	2.27
849.08	20.44
849.392	36.01
849.703	-47.04
850.015	-31.47
850.326	-28.87
850.637	-72.99
850.948	-28.87
851.259	25.63
851.57	-52.23
851.881	54.18
852.192	-67.8
852.503	28.22
852.814	-13.3
853.125	-8.11
853.435	7.46
853.746	4.87
854.056	41.2
854.367	51.58
854.677	-91.16
854.988	46.39
855.298	-0.32
855.609	82.72
855.919	-8.11
856.229	-54.82
856.539	41.2
856.849	116.46
857.159	36.01
857.469	23.03
857.779	4.87
858.089	4.87
858.399	-13.3
858.708	-8.11
859.018	59.37
859.328	67.15
859.637	28.22
859.947	-88.56
860.256	54.18
860.566	-109.32
860.875	-31.47
861.184	-41.85
861.494	-78.18
861.803	95.7
862.112	85.32
862.421	41.2
862.73	87.91
863.039	-5.51
863.348	23.03
863.657	23.03
863.965	-21.09
864.274	4.87
864.583	56.77
864.891	64.56
865.2	-54.82
865.509	15.25
865.817	46.39
866.125	36.01
866.434	59.37
866.742	-5.51
867.05	-52.23
867.358	20.44
867.666	-18.49
867.975	25.63
868.283	59.37
868.59	77.53
868.898	-21.09
869.206	12.65
869.514	30.82
869.822	-26.28
870.129	-10.71
870.437	4.87
870.744	-60.01
871.052	36.01
871.359	119.06
871.667	41.2
871.974	41.2
872.281	12.65
872.589	98.29
872.896	82.72
873.203	20.44
873.51	-117.11
873.817	69.75
874.124	46.39
874.431	72.34
874.737	116.46
875.044	10.06
875.351	124.25
875.658	-18.49
875.964	69.75
876.271	12.65
876.577	23.03
876.884	36.01
877.19	-28.87
877.496	-72.99
877.802	2.27
878.109	-132.68
878.415	-47.04
878.721	-34.06
879.027	-36.66
879.333	-60.01
879.639	-13.3
879.945	-31.47
880.25	-5.51
880.556	87.91
880.862	-80.78
881.167	-21.09
881.473	7.46
881.778	2.27
882.084	7.46
882.389	43.79
882.695	77.53
883	87.91
883.305	12.65
883.61	41.2
883.915	-18.49
884.22	-26.28
884.525	41.2
884.83	-18.49
885.135	33.41
885.44	121.65
885.745	46.39
886.05	93.1
886.354	54.18
886.659	17.84
886.963	113.87
887.268	87.91
887.572	36.01
887.877	-2.92
888.181	67.15
888.485	85.32
888.789	-52.23
889.093	7.46
889.398	41.2
889.702	56.77
890.006	-8.11
890.309	-2.92
890.613	46.39
890.917	25.63
891.221	17.84
891.525	-28.87
891.828	20.44
892.132	-0.32
892.435	-72.99
892.739	36.01
893.042	-23.68
893.345	-21.09
893.649	-75.59
893.952	-31.47
894.255	-62.61
894.558	-78.18
894.861	-39.25
895.164	-26.28
895.467	-5.51
895.77	129.44
896.073	20.44
896.376	-39.25
896.678	38.6
896.981	77.53
897.284	-13.3
897.586	46.39
897.889	-8.11
898.191	-21.09
898.493	2.27
898.796	-0.32
899.098	25.63
899.4	23.03
899.702	56.77
900.004	100.89
900.306	4.87
900.608	15.25
900.91	69.75
901.212	-67.8
901.514	20.44
901.816	7.46
902.117	-18.49
902.419	4.87
902.721	-2.92
903.022	20.44
903.323	-15.9
903.625	38.6
903.926	28.22
904.227	36.01
904.529	41.2
904.83	72.34
905.131	93.1
905.432	25.63
905.733	12.65
906.034	-49.63
906.335	-8.11
906.636	-26.28
906.936	-62.61
907.237	-96.35
907.538	33.41
907.838	54.18
908.139	-44.44
908.439	12.65
908.74	15.25
909.04	59.37
909.34	12.65
909.641	-31.47
909.941	111.27
910.241	54.18
910.541	-5.51
910.841	-44.44
911.141	67.15
911.441	56.77
911.741	132.03
912.04	-2.92
912.34	77.53
912.64	-83.37
912.939	30.82
913.239	41.2
913.538	-62.61
913.838	59.37
914.137	36.01
914.436	61.96
914.736	85.32
915.035	-39.25
915.334	36.01
915.633	-39.25
915.932	-60.01
916.231	48.99
916.53	-28.87
916.829	85.32
917.128	17.84
917.426	74.94
917.725	25.63
918.024	100.89
918.322	64.56
918.621	30.82
918.919	17.84
919.217	-5.51
919.516	4.87
919.814	-101.54
920.112	111.27
920.41	46.39
920.709	-28.87
921.007	-49.63
921.305	28.22
921.602	30.82
921.9	95.7
922.198	-39.25
922.496	-8.11
922.794	93.1
923.091	-122.3
923.389	-8.11
923.686	-8.11
923.984	23.03
924.281	56.77
924.578	-39.25
924.876	-28.87
925.173	69.75
925.47	43.79
925.767	30.82
926.064	-18.49
926.361	-2.92
926.658	-78.18
926.955	-28.87
927.252	43.79
927.549	-54.82
927.845	67.15
928.142	15.25
928.438	2.27
928.735	69.75
929.031	-0.32
929.328	-5.51
929.624	74.94
929.92	43.79
930.217	-10.71
930.513	106.08
930.809	20.44
931.105	33.41
931.401	-60.01
931.697	-52.23
931.993	64.56
932.289	36.01
932.584	-2.92
932.88	28.22
933.176	-34.06
933.471	64.56
933.767	90.51
934.062	56.77
934.358	25.63
934.653	-78.18
934.948	38.6
935.244	-83.37
935.539	-28.87
935.834	-31.47
936.129	38.6
936.424	46.39
936.719	-18.49
937.014	126.84
937.309	87.91
937.603	-15.9
937.898	-18.49
938.193	-13.3
938.487	-8.11
938.782	56.77
939.076	10.06
939.371	17.84
939.665	-10.71
939.959	48.99
940.254	54.18
940.548	61.96
940.842	10.06
941.136	124.25
941.43	-31.47
941.724	-23.68
942.018	30.82
942.311	-47.04
942.605	4.87
942.899	113.87
943.193	15.25
943.486	38.6
943.78	17.84
944.073	-10.71
944.367	-8.11
944.66	15.25
944.953	119.06
945.246	56.77
945.54	20.44
945.833	-2.92
946.126	38.6
946.419	25.63
946.712	-34.06
947.005	2.27
947.297	-15.9
947.59	10.06
947.883	126.84
948.176	36.01
948.468	90.51
948.761	38.6
949.053	10.06
949.346	23.03
949.638	48.99
949.93	30.82
950.222	51.58
950.515	-28.87
950.807	-34.06
951.099	-26.28
951.391	54.18
951.683	-67.8
951.975	33.41
952.266	77.53
952.558	93.1
952.85	2.27
953.141	-8.11
953.433	48.99
953.725	33.41
954.016	-0.32
954.307	33.41
954.599	74.94
954.89	72.34
955.181	-75.59
955.472	43.79
955.763	-23.68
956.055	-111.92
956.346	-8.11
956.636	30.82
956.927	80.13
957.218	-15.9
957.509	-60.01
957.8	-60.01
958.09	10.06
958.381	30.82
958.671	72.34
958.962	-13.3
959.252	-49.63
959.542	160.58
959.833	15.25
960.123	-39.25
960.413	30.82
960.703	-44.44
960.993	-80.78
961.283	54.18
961.573	111.27
961.863	23.03
962.153	61.96
962.442	17.84
962.732	54.18
963.022	-10.71
963.311	17.84
963.601	-5.51
963.89	-15.9
964.18	100.89
964.469	-49.63
964.758	-5.51
965.047	82.72
965.337	-26.28
965.626	-10.71
965.915	-70.4
966.204	-10.71
966.493	23.03
966.781	23.03
967.07	-52.23
967.359	-39.25
967.648	-10.71
967.936	54.18
968.225	12.65
968.513	30.82
968.802	-163.82
969.09	12.65
969.378	-44.44
969.666	33.41
969.955	124.25
970.243	7.46
970.531	43.79
970.819	-0.32
971.107	2.27
971.395	-5.51
971.683	41.2
971.97	12.65
972.258	25.63
972.546	100.89
972.833	-47.04
973.121	64.56
973.408	-80.78
973.696	12.65
973.983	25.63
974.27	72.34
974.558	33.41
974.845	-23.68
975.132	74.94
975.419	106.08
975.706	-10.71
975.993	-101.54
976.28	-62.61
976.566	74.94
976.853	33.41
977.14	23.03
977.426	38.6
977.713	-21.09
978	48.99
978.286	-60.01
978.572	38.6
978.859	129.44
979.145	-21.09
979.431	-57.42
979.717	-75.59
980.003	-109.32
980.289	25.63
980.575	-31.47
980.861	33.41
981.147	4.87
981.433	-67.8
981.719	-70.4
982.004	10.06
982.29	-49.63
982.575	15.25
982.861	-26.28
983.146	2.27
983.432	-21.09
983.717	69.75
984.002	25.63
984.287	17.84
984.573	17.84
984.858	51.58
985.143	36.01
985.428	25.63
985.712	25.63
985.997	-10.71
986.282	74.94
986.567	95.7
986.851	46.39
987.136	4.87
987.42	-44.44
987.705	12.65
987.989	-101.54
988.274	-28.87
988.558	25.63
988.842	-21.09
989.126	194.32
989.41	2.27
989.694	-49.63
989.978	-67.8
990.262	-36.66
990.546	61.96
990.83	137.22
991.114	-2.92
991.397	15.25
991.681	46.39
991.965	-34.06
992.248	2.27
992.531	51.58
992.815	-26.28
993.098	2.27
993.381	10.06
993.665	7.46
993.948	20.44
994.231	82.72
994.514	48.99
994.797	-0.32
995.08	77.53
995.362	17.84
995.645	-26.28
995.928	-47.04
996.211	-10.71
996.493	-15.9
996.776	56.77
997.058	4.87
997.34	61.96
997.623	80.13
997.905	-47.04
998.187	12.65
998.469	-21.09
998.752	-2.92
999.034	20.44
999.316	43.79
999.597	12.65
999.879	-98.94
1000.161	-5.51
1000.443	-18.49
1000.725	-8.11
1001.006	7.46
1001.288	64.56
1001.569	43.79
1001.851	74.94
1002.132	126.84
1002.413	-21.09
1002.694	54.18
1002.976	59.37
1003.257	59.37
1003.538	7.46
1003.819	10.06
1004.1	28.22
1004.381	10.06
1004.661	-26.28
1004.942	30.82
1005.223	51.58
1005.504	51.58
1005.784	28.22
1006.065	-8.11
1006.345	108.68
1006.625	43.79
1006.906	-10.71
1007.186	108.68
1007.466	23.03
1007.746	-80.78
1008.026	28.22
1008.306	23.03
1008.586	-47.04
1008.866	147.6
1009.146	-23.68
1009.426	-5.51
1009.706	17.84
1009.985	-62.61
1010.265	-60.01
1010.544	-5.51
1010.824	59.37
1011.103	41.2
1011.383	-39.25
1011.662	-13.3
1011.941	-26.28
1012.22	56.77
1012.499	69.75
1012.778	-75.59
1013.057	-26.28
1013.336	17.84
1013.615	-49.63
1013.894	72.34
1014.173	30.82
1014.451	23.03
1014.73	46.39
1015.009	121.65
1015.287	-13.3
1015.566	38.6
1015.844	28.22
1016.122	-93.75
1016.4	-52.23
1016.679	-31.47
1016.957	-26.28
1017.235	-57.42
1017.513	15.25
1017.791	74.94
1018.069	23.03
1018.346	4.87
1018.624	-60.01
1018.902	-83.37
1019.179	23.03
1019.457	2.27
1019.735	59.37
1020.012	137.22
1020.289	30.82
1020.567	30.82
1020.844	30.82
