Data from Subt2_19-09-32-797.txt Node
Date: Wed Feb 22 19:09:32 CST 2023
User: Optics Lab
Spectrometer: FLMS14302
Trigger mode: 0
Integration Time (sec): 1.000000E-1
Scans to average: 1
Electric dark correction enabled: true
Nonlinearity correction enabled: false
Boxcar width: 0
XAxis mode: Wavelengths
Number of Pixels in Spectrum: 2048
>>>>>Begin Spectral Data<<<<<
338.578	-3.73
338.961	-3.73
339.343	-3.73
339.725	55.96
340.108	45.58
340.49	-34.87
340.872	-37.47
341.254	-71.21
341.636	11.84
342.018	48.17
342.4	-37.47
342.782	37.79
343.164	97.48
343.546	66.34
343.928	-8.92
344.309	-19.3
344.691	-68.61
345.073	-14.11
345.455	48.17
345.836	9.25
346.218	-27.09
346.599	-8.92
346.981	1.46
347.362	71.53
347.744	-58.23
348.125	-60.83
348.506	17.03
348.888	58.56
349.269	81.91
349.65	58.56
350.031	30.01
350.413	-66.02
350.794	11.84
351.175	-1.14
351.556	37.79
351.937	-63.42
352.318	-63.42
352.698	22.22
353.079	19.63
353.46	-58.23
353.841	-42.66
354.222	24.82
354.602	-45.25
354.983	24.82
355.363	-34.87
355.744	4.06
356.124	68.94
356.505	45.58
356.885	-3.73
357.266	-40.06
357.646	37.79
358.026	40.39
358.407	1.46
358.787	-19.3
359.167	30.01
359.547	-32.28
359.927	102.67
360.307	42.98
360.687	-42.66
361.067	55.96
361.447	30.01
361.827	24.82
362.207	-3.73
362.587	14.44
362.966	1.46
363.346	4.06
363.726	48.17
364.105	-14.11
364.485	94.89
364.865	37.79
365.244	-24.49
365.624	-21.9
366.003	37.79
366.382	-45.25
366.762	45.58
367.141	-42.66
367.52	-21.9
367.899	22.22
368.279	42.98
368.658	-45.25
369.037	50.77
369.416	-37.47
369.795	-3.73
370.174	35.2
370.553	63.75
370.932	76.72
371.311	-19.3
371.689	48.17
372.068	1.46
372.447	-1.14
372.825	-60.83
373.204	61.15
373.583	-16.71
373.961	141.6
374.34	24.82
374.718	-68.61
375.097	35.2
375.475	11.84
375.853	42.98
376.232	22.22
376.61	48.17
376.988	32.6
377.366	11.84
377.744	6.65
378.122	71.53
378.5	-68.61
378.878	17.03
379.256	-24.49
379.634	-19.3
380.012	30.01
380.39	-29.68
380.768	-3.73
381.145	-42.66
381.523	-8.92
381.901	87.1
382.278	45.58
382.656	-37.47
383.033	50.77
383.411	105.27
383.788	-19.3
384.166	-60.83
384.543	141.6
384.921	55.96
385.298	71.53
385.675	-27.09
386.052	-16.71
386.429	22.22
386.806	42.98
387.184	-1.14
387.561	100.08
387.938	-40.06
388.314	-19.3
388.691	-187.99
389.068	4.06
389.445	-1.14
389.822	14.44
390.198	11.84
390.575	-37.47
390.952	-19.3
391.328	-37.47
391.705	17.03
392.081	-19.3
392.458	1.46
392.834	14.44
393.211	120.84
393.587	-8.92
393.963	-86.78
394.34	-63.42
394.716	-50.44
395.092	22.22
395.468	-27.09
395.844	14.44
396.22	50.77
396.596	32.6
396.972	11.84
397.348	-76.4
397.724	22.22
398.1	-27.09
398.476	-3.73
398.851	35.2
399.227	-71.21
399.603	-3.73
399.978	27.41
400.354	87.1
400.729	37.79
401.105	63.75
401.48	-32.28
401.856	-63.42
402.231	11.84
402.606	-40.06
402.982	-6.33
403.357	45.58
403.732	45.58
404.107	27.41
404.482	32.6
404.857	32.6
405.232	6.65
405.607	68.94
405.982	-21.9
406.357	-34.87
406.732	4.06
407.107	-19.3
407.482	-24.49
407.856	-1.14
408.231	-55.64
408.606	-29.68
408.98	-47.85
409.355	-53.04
409.729	-27.09
410.104	-34.87
410.478	45.58
410.852	37.79
411.227	14.44
411.601	48.17
411.975	-3.73
412.35	17.03
412.724	-45.25
413.098	58.56
413.472	76.72
413.846	-104.95
414.22	22.22
414.594	50.77
414.968	-24.49
415.342	-60.83
415.715	45.58
416.089	24.82
416.463	-89.37
416.837	-53.04
417.21	-16.71
417.584	11.84
417.957	48.17
418.331	-3.73
418.704	55.96
419.078	-19.3
419.451	27.41
419.824	-3.73
420.198	-37.47
420.571	37.79
420.944	30.01
421.317	-27.09
421.69	89.7
422.064	22.22
422.437	14.44
422.81	-68.61
423.182	-40.06
423.555	102.67
423.928	35.2
424.301	-55.64
424.674	58.56
425.047	24.82
425.419	40.39
425.792	79.32
426.164	63.75
426.537	-3.73
426.91	17.03
427.282	-6.33
427.654	19.63
428.027	32.6
428.399	42.98
428.771	102.67
429.144	89.7
429.516	81.91
429.888	-94.56
430.26	-19.3
430.632	-146.47
431.004	37.79
431.376	19.63
431.748	128.63
432.12	-21.9
432.492	14.44
432.864	120.84
433.236	-63.42
433.607	-55.64
433.979	-110.14
434.351	58.56
434.722	37.79
435.094	30.01
435.465	-34.87
435.837	162.36
436.208	123.44
436.58	214.27
436.951	92.29
437.322	87.1
437.693	32.6
438.065	9.25
438.436	14.44
438.807	-11.52
439.178	17.03
439.549	-123.11
439.92	55.96
440.291	-14.11
440.662	14.44
441.033	115.65
441.403	-32.28
441.774	11.84
442.145	27.41
442.516	-29.68
442.886	92.29
443.257	66.34
443.627	-11.52
443.998	-11.52
444.368	-11.52
444.739	61.15
445.109	58.56
445.479	24.82
445.85	97.48
446.22	-53.04
446.59	9.25
446.96	120.84
447.33	27.41
447.7	151.98
448.07	45.58
448.44	113.06
448.81	6.65
449.18	1.46
449.55	11.84
449.92	27.41
450.29	-11.52
450.659	-24.49
451.029	94.89
451.399	58.56
451.768	157.17
452.138	92.29
452.507	24.82
452.877	61.15
453.246	100.08
453.615	66.34
453.985	35.2
454.354	131.22
454.723	24.82
455.092	74.13
455.462	-24.49
455.831	48.17
456.2	136.41
456.569	89.7
456.938	81.91
457.307	58.56
457.675	260.98
458.044	123.44
458.413	100.08
458.782	97.48
459.15	45.58
459.519	74.13
459.888	50.77
460.256	94.89
460.625	53.36
460.993	42.98
461.362	68.94
461.73	92.29
462.098	66.34
462.467	113.06
462.835	-1.14
463.203	68.94
463.571	61.15
463.939	79.32
464.307	92.29
464.675	133.82
465.043	120.84
465.411	133.82
465.779	-1.14
466.147	113.06
466.515	118.25
466.883	79.32
467.25	118.25
467.618	164.96
467.986	55.96
468.353	6.65
468.721	66.34
469.088	17.03
469.456	87.1
469.823	84.51
470.19	-3.73
470.558	100.08
470.925	92.29
471.292	63.75
471.659	196.1
472.027	84.51
472.394	141.6
472.761	144.2
473.128	159.77
473.495	30.01
473.862	61.15
474.228	27.41
474.595	97.48
474.962	94.89
475.329	139.01
475.695	35.2
476.062	37.79
476.429	42.98
476.795	45.58
477.162	17.03
477.528	22.22
477.895	32.6
478.261	35.2
478.627	63.75
478.994	-14.11
479.36	-6.33
479.726	27.41
480.092	131.22
480.458	4.06
480.824	-11.52
481.19	-19.3
481.556	74.13
481.922	-11.52
482.288	48.17
482.654	66.34
483.02	37.79
483.385	53.36
483.751	154.58
484.117	35.2
484.482	-24.49
484.848	102.67
485.213	92.29
485.579	81.91
485.944	-3.73
486.31	48.17
486.675	30.01
487.04	76.72
487.406	61.15
487.771	128.63
488.136	50.77
488.501	50.77
488.866	48.17
489.231	170.15
489.596	68.94
489.961	196.1
490.326	107.86
490.691	-60.83
491.056	115.65
491.42	-1.14
491.785	55.96
492.15	53.36
492.514	170.15
492.879	19.63
493.243	-6.33
493.608	89.7
493.972	37.79
494.337	68.94
494.701	-21.9
495.065	63.75
495.43	-60.83
495.794	-58.23
496.158	55.96
496.522	71.53
496.886	-29.68
497.25	35.2
497.614	37.79
497.978	94.89
498.342	40.39
498.706	40.39
499.07	110.46
499.433	45.58
499.797	94.89
500.161	128.63
500.524	24.82
500.888	45.58
501.251	58.56
501.615	74.13
501.978	48.17
502.342	1.46
502.705	-45.25
503.068	118.25
503.432	92.29
503.795	-47.85
504.158	110.46
504.521	48.17
504.884	120.84
505.247	9.25
505.61	74.13
505.973	149.39
506.336	55.96
506.699	-40.06
507.062	35.2
507.424	118.25
507.787	-3.73
508.15	48.17
508.512	102.67
508.875	126.03
509.238	68.94
509.6	84.51
509.962	89.7
510.325	97.48
510.687	66.34
511.049	-19.3
511.412	120.84
511.774	11.84
512.136	105.27
512.498	84.51
512.86	105.27
513.222	27.41
513.584	81.91
513.946	-14.11
514.308	-89.37
514.67	30.01
515.032	113.06
515.393	123.44
515.755	149.39
516.117	11.84
516.478	14.44
516.84	97.48
517.201	123.44
517.563	146.79
517.924	159.77
518.286	42.98
518.647	37.79
519.008	102.67
519.37	1.46
519.731	120.84
520.092	-73.8
520.453	118.25
520.814	19.63
521.175	87.1
521.536	141.6
521.897	61.15
522.258	74.13
522.619	61.15
522.979	22.22
523.34	149.39
523.701	118.25
524.061	48.17
524.422	128.63
524.783	154.58
525.143	42.98
525.504	105.27
525.864	123.44
526.224	74.13
526.585	35.2
526.945	87.1
527.305	9.25
527.665	55.96
528.025	123.44
528.385	6.65
528.746	68.94
529.106	159.77
529.465	94.89
529.825	185.72
530.185	110.46
530.545	42.98
530.905	162.36
531.264	94.89
531.624	55.96
531.984	81.91
532.343	-32.28
532.703	55.96
533.062	92.29
533.422	131.22
533.781	61.15
534.141	102.67
534.5	-24.49
534.859	107.86
535.218	22.22
535.577	92.29
535.937	45.58
536.296	68.94
536.655	68.94
537.014	170.15
537.373	113.06
537.731	63.75
538.09	84.51
538.449	66.34
538.808	136.41
539.166	40.39
539.525	32.6
539.884	1.46
540.242	79.32
540.601	61.15
540.959	61.15
541.318	1.46
541.676	76.72
542.034	144.2
542.393	216.86
542.751	107.86
543.109	84.51
543.467	105.27
543.825	40.39
544.183	76.72
544.541	84.51
544.899	164.96
545.257	157.17
545.615	139.01
545.973	115.65
546.331	55.96
546.688	97.48
547.046	68.94
547.404	11.84
547.761	40.39
548.119	32.6
548.476	141.6
548.834	146.79
549.191	211.67
549.548	-16.71
549.906	102.67
550.263	-19.3
550.62	61.15
550.977	27.41
551.334	22.22
551.691	35.2
552.048	68.94
552.405	35.2
552.762	123.44
553.119	89.7
553.476	89.7
553.833	58.56
554.189	131.22
554.546	61.15
554.903	35.2
555.259	-14.11
555.616	14.44
555.972	107.86
556.329	4.06
556.685	32.6
557.042	68.94
557.398	79.32
557.754	151.98
558.11	-34.87
558.467	87.1
558.823	53.36
559.179	81.91
559.535	24.82
559.891	55.96
560.247	1.46
560.603	24.82
560.958	45.58
561.314	37.79
561.67	68.94
562.026	113.06
562.381	74.13
562.737	1.46
563.092	107.86
563.448	149.39
563.803	164.96
564.159	22.22
564.514	63.75
564.869	105.27
565.225	136.41
565.58	-1.14
565.935	55.96
566.29	84.51
566.645	123.44
567	110.46
567.355	113.06
567.71	84.51
568.065	22.22
568.42	9.25
568.775	50.77
569.13	92.29
569.484	84.51
569.839	14.44
570.193	-58.23
570.548	107.86
570.903	76.72
571.257	58.56
571.611	74.13
571.966	136.41
572.32	37.79
572.674	22.22
573.029	45.58
573.383	-66.02
573.737	-8.92
574.091	19.63
574.445	-1.14
574.799	58.56
575.153	100.08
575.507	79.32
575.861	71.53
576.215	19.63
576.568	-8.92
576.922	58.56
577.276	-34.87
577.629	-16.71
577.983	4.06
578.336	-14.11
578.69	-115.33
579.043	74.13
579.397	100.08
579.75	22.22
580.103	30.01
580.456	45.58
580.81	94.89
581.163	-58.23
581.516	55.96
581.869	24.82
582.222	-3.73
582.575	-115.33
582.928	-55.64
583.281	58.56
583.633	-40.06
583.986	-76.4
584.339	-94.56
584.691	-102.35
585.044	-117.92
585.397	-8.92
585.749	48.17
586.102	-16.71
586.454	-37.47
586.806	-102.35
587.159	-136.09
587.511	-309.97
587.863	-143.87
588.215	-200.97
588.567	-125.71
588.92	-234.71
589.272	-208.75
589.624	-60.83
589.975	-76.4
590.327	-141.28
590.679	-86.78
591.031	-146.47
591.383	-107.54
591.734	-146.47
592.086	-60.83
592.438	-203.56
592.789	-260.66
593.141	-346.3
593.492	-380.04
593.844	-418.97
594.195	-382.64
594.546	-390.42
594.898	-265.85
595.249	-206.16
595.6	-151.66
595.951	-190.59
596.302	-154.25
596.653	-258.06
597.004	-159.45
597.355	-154.25
597.706	-159.45
598.057	-234.71
598.408	-182.8
598.758	-284.02
599.109	-351.49
599.46	-377.45
599.81	-507.21
600.161	-481.25
600.511	-520.18
600.862	-463.09
601.212	-374.85
601.562	-356.68
601.913	-245.09
602.263	-239.9
602.613	-294.4
602.963	-198.37
603.313	-187.99
603.663	-315.16
604.013	-120.52
604.363	-237.3
604.713	-229.52
605.063	-213.95
605.413	-328.14
605.763	-289.21
606.112	-284.02
606.462	-390.42
606.812	-356.68
607.161	-413.78
607.511	-504.61
607.86	-592.85
608.21	-720.02
608.559	-688.87
608.908	-1005.49
609.258	-1322.11
609.607	-1537.52
609.956	-2399.14
610.305	-3359.38
610.654	-5819.66
611.003	-10008.38
611.352	-15422.05
611.701	-18712.82
612.05	-18035.46
612.399	-15544.03
612.748	-12261.05
613.097	-9927.93
613.445	-8157.97
613.794	-6637.16
614.143	-6042.85
614.491	-5601.66
614.84	-5217.57
615.188	-4942.47
615.537	-4410.45
615.885	-3795.38
616.233	-3112.83
616.581	-2765.07
616.93	-2305.71
617.278	-2028.02
617.626	-1903.45
617.974	-1654.3
618.322	-1542.71
618.67	-1568.66
619.018	-1547.9
619.366	-1641.33
619.714	-1597.21
620.061	-1695.83
620.409	-1760.71
620.757	-1812.61
621.104	-1921.61
621.452	-1944.97
621.799	-1763.3
622.147	-1810.02
622.494	-1690.64
622.842	-1662.09
623.189	-1540.11
623.536	-1516.76
623.884	-1498.59
624.231	-1511.57
624.578	-1521.95
624.925	-1573.85
625.272	-1392.18
625.619	-1342.87
625.966	-1368.83
626.313	-1176.78
626.66	-1197.54
627.007	-1189.76
627.353	-1223.49
627.7	-1176.78
628.047	-1324.71
628.393	-1171.59
628.74	-1265.02
629.086	-1280.59
629.433	-1202.73
629.779	-1389.59
630.125	-1542.71
630.472	-1846.35
630.818	-2300.52
631.164	-2894.83
631.51	-3107.64
631.857	-3029.78
632.203	-2497.76
632.549	-1939.78
632.895	-1355.85
633.24	-1036.64
633.586	-803.06
633.932	-636.97
634.278	-374.85
634.624	-372.25
634.969	-338.52
635.315	-167.23
635.66	-291.8
636.006	-193.18
636.351	-229.52
636.697	-175.02
637.042	55.96
637.388	-84.18
637.733	177.94
638.078	408.91
638.423	5669.46
638.768	11539.9
639.113	10976.73
639.458	15033.09
639.803	18069.52
640.148	11776.06
640.493	6806.18
640.838	4190.18
641.183	2469.53
641.527	1350.98
641.872	499.75
642.217	102.67
642.561	74.13
642.906	-156.85
643.25	-169.83
643.595	-167.23
643.939	-177.61
644.284	-232.11
644.628	-136.09
644.972	-198.37
645.316	-239.9
645.66	-250.28
646.004	-206.16
646.348	-281.42
646.692	-239.9
647.036	-250.28
647.38	-208.75
647.724	-302.18
648.068	-198.37
648.412	-271.04
648.755	-224.33
649.099	-338.52
649.443	-224.33
649.786	-354.09
650.13	-457.9
650.473	-735.59
650.816	-922.45
651.16	-1041.83
651.503	-945.8
651.846	-795.28
652.189	-561.71
652.533	-499.42
652.876	-470.87
653.219	-509.8
653.562	-512.4
653.905	-478.66
654.247	-478.66
654.59	-309.97
654.933	-343.71
655.276	-250.28
655.619	-198.37
655.961	-167.23
656.304	-162.04
656.646	-110.14
656.989	-110.14
657.331	-89.37
657.674	-307.37
658.016	-325.54
658.358	-206.16
658.701	-294.4
659.043	-232.11
659.385	-247.68
659.727	-237.3
660.069	-187.99
660.411	-180.21
660.753	-94.56
661.095	-169.83
661.437	-60.83
661.778	-291.8
662.12	-271.04
662.462	-457.9
662.804	-675.9
663.145	-688.87
663.487	-468.28
663.828	-483.85
664.17	-431.95
664.511	-463.09
664.852	-281.42
665.194	-281.42
665.535	-143.87
665.876	-154.25
666.217	-164.64
666.558	-172.42
666.899	-307.37
667.24	-229.52
667.581	-164.64
667.922	-203.56
668.263	-221.73
668.604	-206.16
668.944	-276.23
669.285	-312.56
669.626	-278.83
669.966	-143.87
670.307	-250.28
670.647	-278.83
670.988	-239.9
671.328	-141.28
671.669	-237.3
672.009	-213.95
672.349	-182.8
672.689	-37.47
673.029	-242.49
673.369	-143.87
673.71	-242.49
674.049	-185.4
674.389	-247.68
674.729	-221.73
675.069	-112.73
675.409	-84.18
675.749	-185.4
676.088	-156.85
676.428	-136.09
676.768	-180.21
677.107	-239.9
677.447	-211.35
677.786	-104.95
678.125	-250.28
678.465	-273.64
678.804	-89.37
679.143	-338.52
679.482	-213.95
679.821	-146.47
680.161	-175.02
680.5	-180.21
680.839	-169.83
681.177	-263.25
681.516	-146.47
681.855	-234.71
682.194	-156.85
682.533	-146.47
682.871	-149.06
683.21	-193.18
683.549	-143.87
683.887	-136.09
684.225	-115.33
684.564	-94.56
684.902	-97.16
685.241	-143.87
685.579	-42.66
685.917	-37.47
686.255	-141.28
686.593	-141.28
686.931	-237.3
687.269	-338.52
687.607	-517.59
687.945	-538.35
688.283	-512.4
688.621	-535.75
688.959	-496.83
689.296	-367.06
689.634	-221.73
689.972	-115.33
690.309	-128.3
690.647	-151.66
690.984	-81.59
691.322	-164.64
691.659	-89.37
691.996	-112.73
692.333	-102.35
692.671	-86.78
693.008	-177.61
693.345	-138.68
693.682	-335.92
694.019	-421.56
694.356	-320.35
694.693	-416.37
695.03	-330.73
695.366	-245.09
695.703	-221.73
696.04	-97.16
696.376	-224.33
696.713	-213.95
697.05	-19.3
697.386	-117.92
697.722	-1.14
698.059	-40.06
698.395	-3.73
698.731	-89.37
699.068	-63.42
699.404	-11.52
699.74	-32.28
700.076	-34.87
700.412	-19.3
700.748	-27.09
701.084	-68.61
701.42	-58.23
701.756	-11.52
702.091	-133.49
702.427	-91.97
702.763	-71.21
703.098	-143.87
703.434	-53.04
703.769	-115.33
704.105	-117.92
704.44	-146.47
704.776	-169.83
705.111	-255.47
705.446	-281.42
705.781	-400.8
706.117	-556.52
706.452	-709.64
706.787	-865.35
707.122	-1189.76
707.457	-1181.97
707.792	-1368.83
708.126	-1231.28
708.461	-1052.21
708.796	-1171.59
709.131	-1428.52
709.465	-1617.97
709.8	-1597.21
710.134	-1259.83
710.469	-1023.66
710.803	-751.16
711.138	-673.3
711.472	-629.18
711.806	-686.28
712.14	-792.68
712.475	-1197.54
712.809	-1329.9
713.143	-1176.78
713.477	-1070.37
713.811	-688.87
714.145	-678.49
714.479	-395.61
714.812	-198.37
715.146	-136.09
715.48	-73.8
715.814	-151.66
716.147	-89.37
716.481	-84.18
716.814	-63.42
717.148	9.25
717.481	6.65
717.814	-19.3
718.148	-130.9
718.481	-94.56
718.814	-21.9
719.147	48.17
719.48	-37.47
719.813	-185.4
720.146	-32.28
720.479	-78.99
720.812	53.36
721.145	-81.59
721.478	102.67
721.81	-11.52
722.143	22.22
722.476	94.89
722.808	-32.28
723.141	-58.23
723.473	-37.47
723.806	19.63
724.138	66.34
724.47	-58.23
724.803	-60.83
725.135	37.79
725.467	-16.71
725.799	-40.06
726.131	-66.02
726.463	-102.35
726.795	4.06
727.127	-14.11
727.459	-8.92
727.791	-21.9
728.122	35.2
728.454	6.65
728.786	-89.37
729.117	-24.49
729.449	-73.8
729.78	-71.21
730.112	-1.14
730.443	-60.83
730.774	6.65
731.106	-32.28
731.437	61.15
731.768	-21.9
732.099	-14.11
732.43	37.79
732.761	-53.04
733.092	-84.18
733.423	-42.66
733.754	-45.25
734.085	-60.83
734.416	9.25
734.746	-58.23
735.077	-89.37
735.407	17.03
735.738	-6.33
736.068	87.1
736.399	-55.64
736.729	-66.02
737.06	-19.3
737.39	11.84
737.72	-19.3
738.05	-58.23
738.38	-1.14
738.71	22.22
739.041	32.6
739.37	-50.44
739.7	-34.87
740.03	19.63
740.36	-55.64
740.69	-14.11
741.02	-19.3
741.349	-19.3
741.679	-42.66
742.008	-86.78
742.338	-45.25
742.667	6.65
742.997	-32.28
743.326	-11.52
743.655	24.82
743.984	22.22
744.314	-107.54
744.643	4.06
744.972	-68.61
745.301	-149.06
745.63	-112.73
745.959	-53.04
746.288	-34.87
746.616	-154.25
746.945	-11.52
747.274	32.6
747.603	-11.52
747.931	-21.9
748.26	11.84
748.588	-16.71
748.917	89.7
749.245	24.82
749.573	35.2
749.902	27.41
750.23	32.6
750.558	-34.87
750.886	-14.11
751.214	-24.49
751.542	-3.73
751.87	-53.04
752.198	37.79
752.526	-11.52
752.854	-55.64
753.182	14.44
753.509	-42.66
753.837	-1.14
754.165	81.91
754.492	4.06
754.82	-24.49
755.147	30.01
755.474	19.63
755.802	35.2
756.129	-3.73
756.456	37.79
756.783	61.15
757.111	-11.52
757.438	-14.11
757.765	11.84
758.092	55.96
758.418	35.2
758.745	-99.75
759.072	1.46
759.399	-141.28
759.726	-335.92
760.052	-455.3
760.379	-507.21
760.705	-572.09
761.032	-429.35
761.358	-296.99
761.685	-265.85
762.011	-221.73
762.337	-136.09
762.663	-37.47
762.99	-66.02
763.316	11.84
763.642	-66.02
763.968	-6.33
764.294	-107.54
764.62	-16.71
764.946	-102.35
765.271	35.2
765.597	42.98
765.923	-40.06
766.248	32.6
766.574	-32.28
766.9	-3.73
767.225	50.77
767.55	11.84
767.876	-3.73
768.201	-32.28
768.526	11.84
768.852	4.06
769.177	-47.85
769.502	-89.37
769.827	-32.28
770.152	-37.47
770.477	-71.21
770.802	-71.21
771.127	68.94
771.451	50.77
771.776	27.41
772.101	-8.92
772.425	-66.02
772.75	11.84
773.075	24.82
773.399	32.6
773.723	6.65
774.048	-32.28
774.372	-29.68
774.696	-55.64
775.02	55.96
775.345	30.01
775.669	50.77
775.993	11.84
776.317	97.48
776.641	-102.35
776.965	4.06
777.288	9.25
777.612	-154.25
777.936	22.22
778.26	-14.11
778.583	-34.87
778.907	-32.28
779.23	61.15
779.554	-8.92
779.877	-1.14
780.2	22.22
780.524	-63.42
780.847	-6.33
781.17	-27.09
781.493	-27.09
781.816	-53.04
782.139	-37.47
782.462	17.03
782.785	-45.25
783.108	11.84
783.431	-78.99
783.754	-29.68
784.076	68.94
784.399	35.2
784.722	-47.85
785.044	27.41
785.367	6.65
785.689	-16.71
786.011	58.56
786.334	-112.73
786.656	-27.09
786.978	-42.66
787.3	-14.11
787.622	-24.49
787.944	-16.71
788.266	58.56
788.588	-6.33
788.91	-27.09
789.232	-21.9
789.554	27.41
789.876	-3.73
790.197	48.17
790.519	-97.16
790.841	35.2
791.162	40.39
791.483	40.39
791.805	-60.83
792.126	71.53
792.448	-71.21
792.769	-84.18
793.09	55.96
793.411	19.63
793.732	19.63
794.053	37.79
794.374	71.53
794.695	11.84
795.016	-89.37
795.337	-6.33
795.658	-29.68
795.978	81.91
796.299	37.79
796.619	-50.44
796.94	11.84
797.261	-66.02
797.581	30.01
797.901	1.46
798.222	-19.3
798.542	1.46
798.862	79.32
799.182	-53.04
799.502	-45.25
799.822	-24.49
800.142	-130.9
800.462	-14.11
800.782	-11.52
801.102	37.79
801.422	92.29
801.742	-60.83
802.061	-24.49
802.381	14.44
802.701	-21.9
803.02	4.06
803.339	-76.4
803.659	-11.52
803.978	27.41
804.298	71.53
804.617	63.75
804.936	19.63
805.255	-84.18
805.574	-102.35
805.893	-53.04
806.212	27.41
806.531	-68.61
806.85	-89.37
807.169	-6.33
807.487	30.01
807.806	-29.68
808.125	6.65
808.443	17.03
808.762	-66.02
809.08	61.15
809.399	76.72
809.717	1.46
810.035	22.22
810.354	-29.68
810.672	-125.71
810.99	-424.16
811.308	-574.68
811.626	-787.49
811.944	-761.54
812.262	-592.85
812.58	-504.61
812.898	-177.61
813.216	-133.49
813.533	-107.54
813.851	-47.85
814.169	22.22
814.486	76.72
814.804	-40.06
815.121	-29.68
815.438	-86.78
815.756	4.06
816.073	-24.49
816.39	22.22
816.707	19.63
817.025	-29.68
817.342	27.41
817.659	-40.06
817.976	-27.09
818.292	-6.33
818.609	-8.92
818.926	14.44
819.243	-123.11
819.559	-164.64
819.876	-60.83
820.193	-76.4
820.509	-45.25
820.826	-78.99
821.142	24.82
821.458	-40.06
821.775	58.56
822.091	-21.9
822.407	-8.92
822.723	17.03
823.039	55.96
823.355	-47.85
823.671	14.44
823.987	71.53
824.303	19.63
824.619	-55.64
824.935	115.65
825.25	-81.59
825.566	81.91
825.881	9.25
826.197	-14.11
826.512	-130.9
826.828	-24.49
827.143	4.06
827.458	-42.66
827.774	-40.06
828.089	6.65
828.404	-115.33
828.719	-3.73
829.034	-6.33
829.349	9.25
829.664	-136.09
829.979	-245.09
830.294	-294.4
830.608	-252.87
830.923	-130.9
831.238	-141.28
831.552	-55.64
831.867	-66.02
832.181	-117.92
832.496	-14.11
832.81	17.03
833.124	50.77
833.439	-47.85
833.753	-40.06
834.067	11.84
834.381	45.58
834.695	-42.66
835.009	42.98
835.323	-1.14
835.637	24.82
835.951	27.41
836.264	-21.9
836.578	17.03
836.892	-11.52
837.205	27.41
837.519	-45.25
837.832	-11.52
838.146	48.17
838.459	14.44
838.772	-86.78
839.086	-3.73
839.399	-68.61
839.712	-21.9
840.025	32.6
840.338	-45.25
840.651	40.39
840.964	79.32
841.277	-84.18
841.59	131.22
841.902	-6.33
842.215	-6.33
842.528	-27.09
842.84	30.01
843.153	-21.9
843.465	32.6
843.778	22.22
844.09	42.98
844.403	133.82
844.715	113.06
845.027	-16.71
845.339	-45.25
845.651	32.6
845.963	9.25
846.275	102.67
846.587	-24.49
846.899	-16.71
847.211	-24.49
847.523	9.25
847.834	-58.23
848.146	-8.92
848.457	32.6
848.769	17.03
849.08	24.82
849.392	68.94
849.703	-89.37
850.015	-89.37
850.326	42.98
850.637	-86.78
850.948	-45.25
851.259	1.46
851.57	-50.44
851.881	42.98
852.192	-107.54
852.503	74.13
852.814	-47.85
853.125	37.79
853.435	-21.9
853.746	-6.33
854.056	6.65
854.367	32.6
854.677	-187.99
854.988	76.72
855.298	48.17
855.609	74.13
855.919	11.84
856.229	-110.14
856.539	1.46
856.849	61.15
857.159	9.25
857.469	-29.68
857.779	37.79
858.089	-68.61
858.399	-42.66
858.708	-27.09
859.018	40.39
859.328	40.39
859.637	-19.3
859.947	-32.28
860.256	58.56
860.566	-42.66
860.875	-37.47
861.184	6.65
861.494	4.06
861.803	22.22
862.112	97.48
862.421	11.84
862.73	48.17
863.039	11.84
863.348	-21.9
863.657	74.13
863.965	-27.09
864.274	9.25
864.583	37.79
864.891	35.2
865.2	-86.78
865.509	-50.44
865.817	66.34
866.125	-32.28
866.434	48.17
866.742	-11.52
867.05	-24.49
867.358	-3.73
867.666	14.44
867.975	-1.14
868.283	14.44
868.59	94.89
868.898	22.22
869.206	89.7
869.514	-53.04
869.822	-76.4
870.129	32.6
870.437	24.82
870.744	-19.3
871.052	40.39
871.359	107.86
871.667	30.01
871.974	-24.49
872.281	-27.09
872.589	50.77
872.896	22.22
873.203	-37.47
873.51	-68.61
873.817	-29.68
874.124	14.44
874.431	-16.71
874.737	6.65
875.044	-34.87
875.351	22.22
875.658	-60.83
875.964	6.65
876.271	100.08
876.577	-21.9
876.884	55.96
877.19	-47.85
877.496	-104.95
877.802	11.84
878.109	-208.75
878.415	-86.78
878.721	-86.78
879.027	-42.66
879.333	-1.14
879.639	-73.8
879.945	9.25
880.25	-58.23
880.556	14.44
880.862	-32.28
881.167	-63.42
881.473	71.53
881.778	-24.49
882.084	-66.02
882.389	4.06
882.695	71.53
883	-16.71
883.305	100.08
883.61	1.46
883.915	-3.73
884.22	-84.18
884.525	6.65
884.83	-6.33
885.135	-112.73
885.44	50.77
885.745	-63.42
886.05	-19.3
886.354	74.13
886.659	-63.42
886.963	139.01
887.268	45.58
887.572	-21.9
887.877	-6.33
888.181	35.2
888.485	32.6
888.789	-112.73
889.093	-6.33
889.398	48.17
889.702	32.6
890.006	22.22
890.309	32.6
890.613	84.51
890.917	-34.87
891.221	50.77
891.525	-45.25
891.828	-8.92
892.132	-91.97
892.435	-172.42
892.739	-84.18
893.042	-66.02
893.345	-53.04
893.649	-149.06
893.952	-107.54
894.255	-125.71
894.558	-73.8
894.861	-73.8
895.164	-24.49
895.467	37.79
895.77	154.58
896.073	-11.52
896.376	35.2
896.678	1.46
896.981	30.01
897.284	-78.99
897.586	45.58
897.889	-14.11
898.191	9.25
898.493	-32.28
898.796	48.17
899.098	-24.49
899.4	53.36
899.702	-6.33
900.004	55.96
900.306	-45.25
900.608	45.58
900.91	19.63
901.212	-14.11
901.514	-66.02
901.816	32.6
902.117	48.17
902.419	81.91
902.721	-8.92
903.022	17.03
903.323	-45.25
903.625	92.29
903.926	-21.9
904.227	68.94
904.529	-40.06
904.83	139.01
905.131	24.82
905.432	40.39
905.733	11.84
906.034	-55.64
906.335	74.13
906.636	-66.02
906.936	-68.61
907.237	-1.14
907.538	-27.09
907.838	-42.66
908.139	27.41
908.439	100.08
908.74	-37.47
909.04	22.22
909.34	81.91
909.641	45.58
909.941	94.89
910.241	-19.3
910.541	-34.87
910.841	-16.71
911.141	-8.92
911.441	55.96
911.741	100.08
912.04	-29.68
912.34	27.41
912.64	-34.87
912.939	1.46
913.239	45.58
913.538	-29.68
913.838	-3.73
914.137	-40.06
914.436	45.58
914.736	-81.59
915.035	1.46
915.334	55.96
915.633	-58.23
915.932	6.65
916.231	40.39
916.53	-58.23
916.829	-19.3
917.128	-3.73
917.426	22.22
917.725	-53.04
918.024	126.03
918.322	37.79
918.621	30.01
918.919	-29.68
919.217	66.34
919.516	45.58
919.814	-91.97
920.112	50.77
920.41	9.25
920.709	-24.49
921.007	-3.73
921.305	-84.18
921.602	-1.14
921.9	19.63
922.198	-14.11
922.496	-58.23
922.794	45.58
923.091	-32.28
923.389	9.25
923.686	-3.73
923.984	-91.97
924.281	-8.92
924.578	-42.66
924.876	-11.52
925.173	-1.14
925.47	-53.04
925.767	27.41
926.064	-37.47
926.361	71.53
926.658	-27.09
926.955	14.44
927.252	45.58
927.549	1.46
927.845	19.63
928.142	-3.73
928.438	11.84
928.735	22.22
929.031	-37.47
929.328	4.06
929.624	22.22
929.92	76.72
930.217	58.56
930.513	120.84
930.809	-55.64
931.105	-19.3
931.401	-66.02
931.697	-29.68
931.993	113.06
932.289	-8.92
932.584	-120.52
932.88	-73.8
933.176	11.84
933.471	50.77
933.767	107.86
934.062	100.08
934.358	55.96
934.653	-91.97
934.948	19.63
935.244	-91.97
935.539	42.98
935.834	68.94
936.129	19.63
936.424	-21.9
936.719	32.6
937.014	55.96
937.309	68.94
937.603	55.96
937.898	-1.14
938.193	-63.42
938.487	17.03
938.782	30.01
939.076	-8.92
939.371	-84.18
939.665	-6.33
939.959	-6.33
940.254	-68.61
940.548	50.77
940.842	35.2
941.136	48.17
941.43	-24.49
941.724	-14.11
942.018	-11.52
942.311	48.17
942.605	1.46
942.899	-34.87
943.193	4.06
943.486	45.58
943.78	-40.06
944.073	-97.16
944.367	24.82
944.66	1.46
944.953	105.27
945.246	40.39
945.54	58.56
945.833	1.46
946.126	66.34
946.419	131.22
946.712	-68.61
947.005	55.96
947.297	-84.18
947.59	42.98
947.883	63.75
948.176	-3.73
948.468	-3.73
948.761	-42.66
949.053	4.06
949.346	-24.49
949.638	-102.35
949.93	-55.64
950.222	30.01
950.515	-50.44
950.807	-11.52
951.099	-53.04
951.391	61.15
951.683	-47.85
951.975	71.53
952.266	107.86
952.558	35.2
952.85	24.82
953.141	11.84
953.433	50.77
953.725	-29.68
954.016	-19.3
954.307	-66.02
954.599	53.36
954.89	4.06
955.181	-71.21
955.472	74.13
955.763	-37.47
956.055	-112.73
956.346	74.13
956.636	32.6
956.927	-42.66
957.218	17.03
957.509	30.01
957.8	-128.3
958.09	-6.33
958.381	40.39
958.671	24.82
958.962	-53.04
959.252	14.44
959.542	115.65
959.833	-37.47
960.123	-40.06
960.413	-11.52
960.703	58.56
960.993	-1.14
961.283	-14.11
961.573	4.06
961.863	-58.23
962.153	-32.28
962.442	-99.75
962.732	55.96
963.022	42.98
963.311	-40.06
963.601	-78.99
963.89	-45.25
964.18	-14.11
964.469	-14.11
964.758	-32.28
965.047	22.22
965.337	-16.71
965.626	-6.33
965.915	-86.78
966.204	-99.75
966.493	17.03
966.781	11.84
967.07	6.65
967.359	-71.21
967.648	-76.4
967.936	1.46
968.225	55.96
968.513	63.75
968.802	-84.18
969.09	30.01
969.378	-66.02
969.666	-19.3
969.955	71.53
970.243	-99.75
970.531	19.63
970.819	32.6
971.107	-34.87
971.395	14.44
971.683	37.79
971.97	87.1
972.258	-11.52
972.546	81.91
972.833	-55.64
973.121	76.72
973.408	-34.87
973.696	4.06
973.983	-21.9
974.27	19.63
974.558	11.84
974.845	-73.8
975.132	68.94
975.419	55.96
975.706	4.06
975.993	-66.02
976.28	-11.52
976.566	32.6
976.853	58.56
977.14	37.79
977.426	-19.3
977.713	-27.09
978	40.39
978.286	-76.4
978.572	24.82
978.859	-24.49
979.145	-24.49
979.431	55.96
979.717	-66.02
980.003	11.84
980.289	-47.85
980.575	-123.11
980.861	58.56
981.147	9.25
981.433	11.84
981.719	1.46
982.004	-16.71
982.29	30.01
982.575	-6.33
982.861	48.17
983.146	-104.95
983.432	11.84
983.717	35.2
984.002	-45.25
984.287	-19.3
984.573	9.25
984.858	19.63
985.143	1.46
985.428	9.25
985.712	9.25
985.997	-32.28
986.282	61.15
986.567	-1.14
986.851	92.29
987.136	45.58
987.42	14.44
987.705	24.82
987.989	-84.18
988.274	24.82
988.558	32.6
988.842	-24.49
989.126	48.17
989.41	19.63
989.694	-97.16
989.978	-24.49
990.262	-97.16
990.546	9.25
990.83	149.39
991.114	-24.49
991.397	40.39
991.681	-21.9
991.965	-73.8
992.248	-91.97
992.531	50.77
992.815	-84.18
993.098	19.63
993.381	-27.09
993.665	-37.47
993.948	55.96
994.231	-6.33
994.514	-42.66
994.797	-29.68
995.08	1.46
995.362	27.41
995.645	-8.92
995.928	40.39
996.211	-32.28
996.493	-14.11
996.776	68.94
997.058	42.98
997.34	40.39
997.623	123.44
997.905	-151.66
998.187	100.08
998.469	94.89
998.752	19.63
999.034	71.53
999.316	58.56
999.597	24.82
999.879	-27.09
1000.161	-6.33
1000.443	-21.9
1000.725	-16.71
1001.006	6.65
1001.288	32.6
1001.569	17.03
1001.851	45.58
1002.132	63.75
1002.413	-55.64
1002.694	24.82
1002.976	6.65
1003.257	1.46
1003.538	100.08
1003.819	-3.73
1004.1	-8.92
1004.381	-3.73
1004.661	-8.92
1004.942	-27.09
1005.223	27.41
1005.504	71.53
1005.784	55.96
1006.065	-16.71
1006.345	37.79
1006.625	-27.09
1006.906	-84.18
1007.186	68.94
1007.466	-71.21
1007.746	-24.49
1008.026	-14.11
1008.306	14.44
1008.586	-73.8
1008.866	92.29
1009.146	-11.52
1009.426	-84.18
1009.706	53.36
1009.985	-32.28
1010.265	-16.71
1010.544	61.15
1010.824	45.58
1011.103	11.84
1011.383	-11.52
1011.662	-24.49
1011.941	-73.8
1012.22	79.32
1012.499	94.89
1012.778	-32.28
1013.057	107.86
1013.336	-6.33
1013.615	6.65
1013.894	-14.11
1014.173	-21.9
1014.451	-8.92
1014.73	48.17
1015.009	-29.68
1015.287	4.06
1015.566	30.01
1015.844	-45.25
1016.122	-1.14
1016.4	14.44
1016.679	63.75
1016.957	-37.47
1017.235	-40.06
1017.513	9.25
1017.791	42.98
1018.069	-3.73
1018.346	-45.25
1018.624	-27.09
1018.902	-84.18
1019.179	6.65
1019.457	-8.92
1019.735	-24.49
1020.012	141.6
1020.289	-16.71
1020.567	-16.71
1020.844	-16.71
